,,,,
,,,,
Characteristic Energy eV,1486.6,Acquisition Time s,10,
BE_Si 2s 2,CPS_Si 2s 2,Si 2s_1_Si 2s 2,Background_Si 2s 2,Envelope_Si 2s 2
160.4,8659.6,8660.48,8659.6,8660.48
160.275,8742.8,8743.73,8742.8,8743.73
160.15,8681.6,8682.59,8681.6,8682.59
160.025,8686.9,8687.95,8686.9,8687.95
159.9,8671.1,8672.22,8671.1,8672.22
159.775,8690.2,8691.4,8690.2,8691.4
159.65,8710.2,8711.49,8710.2,8711.49
159.525,8650.4,8651.78,8650.4,8651.78
159.4,8680.8,8682.28,8680.8,8682.28
159.275,8689.5,8691.09,8689.5,8691.09
159.15,8647.3,8649.01,8647.3,8649.01
159.025,8653.9,8655.75,8653.9,8655.75
158.9,8627.1,8629.1,8627.1,8629.1
158.775,8696.7,8698.87,8696.7,8698.87
158.65,8671,8673.36,8671,8673.36
158.525,8696.9,8699.47,8696.9,8699.47
158.4,8697.4,8700.21,8697.4,8700.21
158.275,8698.6,8701.68,8698.6,8701.68
158.15,8675.9,8679.29,8675.9,8679.29
158.025,8687.5,8691.24,8687.5,8691.24
157.9,8659.1,8663.25,8659.1,8663.25
157.775,8660,8664.62,8660,8664.62
157.65,8622.8,8627.97,8622.8,8627.97
157.525,8672.8,8678.61,8672.8,8678.61
157.4,8685.5,8691.08,8684.5,8691.08
157.275,8695.2,8691.97,8684.47,8691.97
157.15,8686.5,8693.08,8684.47,8693.08
157.025,8709.8,8694.38,8684.41,8694.38
156.9,8701.1,8696.03,8684.37,8696.03
156.775,8724.4,8698.07,8684.27,8698.07
156.65,8726.3,8700.67,8684.17,8700.67
156.525,8657.2,8704.06,8684.11,8704.06
156.4,8707.9,8708.45,8684.05,8708.45
156.275,8747.4,8714.07,8683.9,8714.07
156.15,8786,8721.33,8683.66,8721.33
156.025,8755.5,8730.88,8683.48,8730.88
155.9,8758.4,8743.26,8683.31,8743.26
155.775,8771.3,8759.18,8683.09,8759.18
155.65,8835.2,8779.29,8682.73,8779.29
155.525,8857.3,8804.49,8682.32,8804.49
155.4,8877,8835.6,8681.85,8835.6
155.275,8905.8,8873.36,8681.32,8873.36
155.15,8898.2,8918.23,8680.8,8918.23
155.025,8908.2,8970.3,8680.26,8970.3
154.9,9013.1,9029.02,8679.46,9029.02
154.775,9117.9,9093.47,8678.41,9093.47
154.65,9127.7,9162.27,8677.34,9162.27
154.525,9246.9,9232.94,8675.98,9232.94
154.4,9235.7,9303.02,8674.65,9303.02
154.275,9348.7,9368.98,8673.04,9368.98
154.15,9424.2,9427.51,8671.25,9427.51
154.025,9457.5,9475.46,8669.37,9475.46
153.9,9576,9509.64,8667.2,9509.64
153.775,9542.6,9528.16,8665.12,9528.16
153.65,9520,9529.82,8663.07,9529.82
153.525,9531.3,9514.29,8661,9514.29
153.4,9455.7,9482.51,8659.11,9482.51
153.275,9510.5,9436.08,8657.07,9436.08
153.15,9400.1,9378.1,8655.3,9378.1
153.025,9298.9,9311.68,8653.76,9311.68
152.9,9227.8,9240.11,8652.39,9240.11
152.775,9134.1,9166.83,8651.24,9166.83
152.65,9036.8,9094.81,8650.32,9094.81
152.525,8990.4,9026.39,8649.51,9026.39
152.4,8987.9,8963.38,8648.7,8963.38
152.275,8914.4,8907.11,8648.07,8907.11
152.15,8837.8,8858.16,8647.62,8858.16
152.025,8810.3,8816.47,8647.23,8816.47
151.9,8806,8781.75,8646.85,8781.75
151.775,8753,8753.42,8646.6,8753.42
151.65,8736,8730.63,8646.38,8730.63
151.525,8743.3,8712.51,8646.15,8712.51
151.4,8731.3,8698.33,8645.95,8698.33
151.275,8691,8687.36,8645.84,8687.36
151.15,8686.2,8678.88,8645.75,8678.88
151.025,8737.7,8672.2,8645.53,8672.2
150.9,8661.3,8667.2,8645.49,8667.2
150.775,8687.9,8663.25,8645.39,8663.25
150.65,8645.4,8660.26,8645.39,8660.26
150.525,8665.7,8657.85,8645.34,8657.85
150.4,8673.7,8655.92,8645.27,8655.92
150.275,8678.5,8654.35,8645.19,8654.35
150.15,8677.2,8653.06,8645.11,8653.06
150.025,8618.6,8652,8645.05,8652
149.9,8642.8,8651.17,8645.05,8651.17
149.775,8613.4,8650.4,8644.97,8650.4
149.65,8694,8649.7,8644.85,8649.7
149.525,8648,8649.19,8644.85,8649.19
149.4,8657.2,8648.73,8644.82,8648.73
149.275,8623.5,8648.3,8644.77,8648.3
149.15,8653.6,8656.81,8653.6,8656.81
149.025,8689.8,8692.72,8689.8,8692.72
148.9,8600.6,8603.27,8600.6,8603.27
148.775,8617.8,8620.25,8617.8,8620.25
148.65,8636.3,8638.55,8636.3,8638.55
148.525,8642.9,8644.97,8642.9,8644.97
148.4,8569.2,8571.11,8569.2,8571.11
148.275,8627.2,8628.97,8627.2,8628.97
148.15,8612.3,8613.94,8612.3,8613.94
148.025,8643.6,8645.12,8643.6,8645.12
147.9,8648.8,8650.22,8648.8,8650.22
147.775,8576,8577.32,8576,8577.32
147.65,8637.6,8638.84,8637.6,8638.84
147.525,8602.2,8603.36,8602.2,8603.36
147.4,8638.3,8639.38,8638.3,8639.38
