,,,,,
,,,,,
Characteristic Energy eV,1486.6,Acquisition Time s,6,,
BE_N 1s 5,CPS_N 1s 5,N 1s_1_N 1s 5,N 1s_2_N 1s 5,Background_N 1s 5,Envelope_N 1s 5
407.4,14668.5,14670,14668.9,14668.5,14670.4
407.275,14800.8,14802.5,14801.3,14800.8,14802.9
407.15,14713,14714.8,14713.5,14713,14715.2
407.025,14865.5,14867.4,14866,14865.5,14867.9
406.9,14684.3,14686.4,14684.9,14684.3,14687
406.775,14748.5,14750.8,14749.1,14748.5,14751.4
406.65,14659.8,14662.4,14660.4,14659.8,14663
406.525,14746.8,14749.7,14747.5,14746.8,14750.3
406.4,14731.8,14735,14732.5,14731.8,14735.6
406.275,14657.2,14660.6,14657.9,14657.2,14661.3
406.15,14754.3,14758.2,14755.1,14754.3,14759
406.025,14675.7,14680,14676.5,14675.7,14680.8
405.9,14636,14640.9,14636.8,14636,14641.8
405.775,14724,14729.6,14724.9,14724,14730.4
405.65,14742.8,14749.2,14743.8,14742.8,14750.1
405.525,14682.3,14696.6,14690.3,14689.3,14697.6
405.4,14642.8,14697.7,14690.4,14689.3,14698.8
405.275,14718.7,14699.2,14690.4,14689.3,14700.3
405.15,14660.8,14700.9,14690.5,14689.3,14702.1
405.025,14747.5,14703.1,14690.6,14689.3,14704.4
404.9,14686.7,14706,14690.7,14689.3,14707.4
404.775,14842.3,14709.9,14690.7,14689.2,14711.4
404.65,14782.2,14715.1,14690.8,14689.2,14716.7
404.525,14659.3,14722.5,14690.9,14689.2,14724.3
404.4,14752,14733.2,14691.1,14689.2,14735.1
404.275,14755.8,14748.7,14691.2,14689.2,14750.8
404.15,14751.3,14771.7,14691.4,14689.1,14774
404.025,14757,14805.7,14691.6,14689.1,14808.2
403.9,14860.5,14855.6,14691.7,14689.1,14858.2
403.775,14911.7,14927.1,14691.9,14689,14930
403.65,15050.7,15026.6,14692.1,14688.9,15029.8
403.525,15100.5,15160.1,14692.3,14688.8,15163.6
403.4,15346.5,15330.9,14692.5,14688.6,15334.9
403.275,15543.7,15538,14692.7,14688.3,15542.4
403.15,15715.2,15773.8,14692.9,14688,15778.7
403.025,16050.8,16023.3,14693.1,14687.6,16028.8
402.9,16257.7,16264.6,14693.3,14687.1,16270.8
402.775,16561,16471.8,14693.6,14686.6,16478.9
402.65,16637.3,16619.6,14694.1,14686,16627.6
402.525,16634.7,16687.9,14694.7,14685.4,16697.2
402.4,16684.8,16667.2,14695.6,14684.8,16678
402.275,16642.7,16560.4,14696.9,14684.3,16573
402.15,16387.8,16382.1,14698.8,14683.7,16397.2
402.025,16153.7,16155.5,14701.5,14683.3,16173.7
401.9,15867.7,15906.7,14705.3,14683,15929
401.775,15554.8,15660.3,14710.5,14682.7,15688.1
401.65,15560,15435.4,14717.6,14682.4,15470.6
401.525,15298.2,15243.6,14727.6,14682.3,15288.9
401.4,15176,15089.3,14741.3,14682.1,15148.5
401.275,15092.2,14971.3,14760.3,14682,15049.6
401.15,15015,14884.9,14786.2,14681.9,14989.2
401.025,15067.5,14823.7,14821.1,14681.8,14963
400.9,15031.5,14781.4,14867.3,14681.7,14967.1
400.775,15117.5,14752.7,14927,14681.5,14998.2
400.65,15084.7,14733.3,15002.5,14681.4,15054.3
400.525,15097,14720,15094.7,14681.3,15133.5
400.4,15318.2,14710.8,15203.5,14681.1,15233.3
400.275,15239.3,14704.3,15327.2,14680.9,15350.5
400.15,15458.5,14699.5,15461.6,14680.7,15480.3
400.025,15476.2,14695.8,15600.5,14680.5,15615.8
399.9,15736.5,14692.9,15735.6,14680.2,15748.4
399.775,15915.2,14690.6,15857.7,14679.8,15868.5
399.65,15976.7,14688.6,15957.1,14679.4,15966.3
399.525,15975.2,14686.9,16025.4,14679,16033.3
399.4,16089.2,14685.4,16056.4,14678.6,16063.3
399.275,16128.7,14684.1,16047.4,14678.2,16053.4
399.15,16057,14683,15999,14677.8,16004.2
399.025,15984,14682,15915.6,14677.4,15920.2
398.9,15773.7,14681.2,15804.6,14677,15808.8
398.775,15663.5,14680.4,15675.2,14676.7,15678.9
398.65,15510.5,14679.8,15536.8,14676.5,15540.1
398.525,15327.7,14679.3,15398.5,14676.3,15401.5
398.4,15218.8,14678.8,15267.7,14676.1,15270.4
398.275,15143.2,14678.4,15149.7,14676,15152.1
398.15,15020.5,14678.1,15047.6,14675.9,15049.8
398.025,14956,14677.8,14962.5,14675.8,14964.5
397.9,14947.3,14677.6,14893.8,14675.7,14895.6
397.775,14953,14677.4,14839.9,14675.7,14841.6
397.65,14790.7,14677.2,14798.7,14675.6,14800.2
397.525,14770.3,14677,14767.8,14675.6,14769.2
397.4,14806.5,14676.9,14744.9,14675.6,14746.3
397.275,14742.3,14676.8,14728.3,14675.5,14729.5
397.15,14751.8,14676.7,14716.1,14675.5,14717.3
397.025,14669,14676.6,14707.2,14675.5,14708.3
396.9,14655.8,14676.5,14700.7,14675.5,14701.7
396.775,14710.8,14676.4,14695.9,14675.5,14696.8
396.65,14644.7,14676.4,14692.2,14675.5,14693.1
396.525,14672.2,14676.3,14689.5,14675.5,14690.3
396.4,14724.3,14676.2,14687.3,14675.5,14688.1
396.275,14684.8,14676.2,14685.6,14675.5,14686.3
396.15,14730.5,14676.1,14684.2,14675.4,14684.8
396.025,14660.3,14676.1,14683,14675.4,14683.7
395.9,14635.5,14636.1,14642.2,14635.5,14642.8
395.775,14580.8,14581.4,14586.7,14580.8,14587.3
395.65,14614,14614.5,14619.2,14614,14619.8
395.525,14539.8,14540.3,14544.5,14539.8,14545
395.4,14651.7,14652.1,14655.8,14651.7,14656.3
