,,,,
,,,,
Characteristic Energy eV,1486.6,Acquisition Time s,3.2,
BE_F 1s 7,CPS_F 1s 7,F 1s_1_F 1s 7,Background_F 1s 7,Envelope_F 1s 7
695.4,14371.9,14379.6,14371.9,14379.6
695.275,14364.1,14372.3,14364.1,14372.3
695.15,14371.9,14380.6,14371.9,14380.6
695.025,14384.4,14393.6,14384.4,14393.6
694.9,14342.2,14352,14342.2,14352
694.775,14306.6,14317,14306.6,14317
694.65,14282.2,14293.3,14282.2,14293.3
694.525,14308.4,14320.3,14308.4,14320.3
694.4,14335.9,14348.6,14335.9,14348.6
694.275,14357.2,14370.8,14357.2,14370.8
694.15,14315.9,14330.5,14315.9,14330.5
694.025,14313.8,14329.4,14313.8,14329.4
693.9,14259.7,14276.5,14259.7,14276.5
693.775,14337.2,14355.3,14337.2,14355.3
693.65,14289.1,14308.7,14289.1,14308.7
693.525,14290.6,14311.8,14290.6,14311.8
693.4,14164.1,14187.1,14164.1,14187.1
693.275,14377.5,14402.5,14377.5,14402.5
693.15,14318.8,14346.1,14318.8,14346.1
693.025,14221.3,14251.1,14221.3,14251.1
692.9,14115.6,14148.4,14115.6,14148.4
692.775,14214.7,14250.8,14214.7,14250.8
692.65,14203.4,14243.3,14203.4,14243.3
692.525,14318.4,14362.6,14318.4,14362.6
692.4,14218.4,14267.6,14218.4,14267.6
692.275,14286.9,14341.9,14286.9,14341.9
692.15,14210.6,14272.4,14210.6,14272.4
692.025,14310.9,14380.8,14310.9,14380.8
691.9,14331.9,14411.4,14331.9,14411.4
691.775,14415.6,14437.5,14346.4,14437.5
691.65,14291.6,14451.8,14346.4,14451.8
691.525,14431.9,14469.4,14346.4,14469.4
691.4,14334.1,14491.6,14346.5,14491.6
691.275,14361.3,14519.9,14346.5,14519.9
691.15,14446.9,14556.5,14346.5,14556.5
691.025,14510,14604.5,14346.6,14604.5
690.9,14720.6,14668.1,14346.7,14668.1
690.775,14754.1,14752.8,14346.9,14752.8
690.65,14819.4,14866.1,14347.1,14866.1
690.525,14972.8,15017.7,14347.4,15017.7
690.4,15010.6,15219.2,14347.7,15219.2
690.275,15373.4,15484.5,14348.1,15484.5
690.15,15665.6,15829.8,14348.7,15829.8
690.025,16235.6,16270.8,14349.5,16270.8
689.9,16879.1,16822.3,14350.6,16822.3
689.775,17429.4,17495.6,14352,17495.6
689.65,18253.8,18296.6,14353.7,18296.6
689.525,19216.3,19219.6,14355.8,19219.6
689.4,20137.8,20248,14358.3,20248
689.275,21390.9,21352.1,14361.4,21352.1
689.15,22502.8,22486.7,14364.9,22486.7
689.025,23653.1,23595.8,14369,23595.8
688.9,24634.4,24615.1,14373.4,24615.1
688.775,25617.8,25477.5,14378.3,25477.5
688.65,26225.3,26123.7,14383.5,26123.7
688.525,26574.7,26506,14388.8,26506
688.4,26610,26593,14394.2,26593
688.275,26278.4,26379.5,14399.3,26379.5
688.15,25913.1,25883.2,14404.4,25883.2
688.025,24962.2,25141.5,14409,25141.5
687.9,24159.7,24207.9,14413.2,24207.9
687.775,23131.6,23147.8,14417,23147.8
687.65,21957.2,22026.7,14420.3,22026.7
687.525,20874.7,20905.8,14423.1,20905.8
687.4,19729.4,19836.7,14425.4,19836.7
687.275,18861.9,18857.3,14427.4,18857.3
687.15,18026.9,17992,14428.9,17992
687.025,17354.7,17252.5,14430.2,17252.5
686.9,16786.9,16637.8,14431.2,16637.8
686.775,16200.3,16139.7,14432,16139.7
686.65,15980.3,15745.9,14432.7,15745.9
686.525,15589.7,15440.2,14433.2,15440.2
686.4,15506.6,15206.5,14433.6,15206.5
686.275,15085.3,15029.8,14433.9,15029.8
686.15,14981.9,14897.6,14434.2,14897.6
686.025,14824.1,14798.7,14434.3,14798.7
685.9,14675.3,14724.7,14434.4,14724.7
685.775,14771.9,14669.1,14434.6,14669.1
685.65,14643.8,14626.9,14434.7,14626.9
685.525,14737.2,14594.5,14434.8,14594.5
685.4,14490,14569.2,14434.8,14569.2
685.275,14539.7,14549.4,14434.9,14549.4
685.15,14415,14533.4,14434.9,14533.4
685.025,14422.8,14520.5,14434.9,14520.5
684.9,14466.9,14541.8,14466.9,14541.8
684.775,14343.1,14409.2,14343.1,14409.2
684.65,14586.9,14645.4,14586.9,14645.4
684.525,14370.3,14422.5,14370.3,14422.5
684.4,14425.6,14472.4,14425.6,14472.4
