,,,,,,
,,,,,,
Characteristic Energy eV,1486.6,Acquisition Time s,2,,,
BE_C 1s 4,CPS_C 1s 4,C 1s_1_C 1s 4,C 1s_2_C 1s 4,C 1s_3_C 1s 4,Background_C 1s 4,Envelope_C 1s 4
296.4,9232.5,9233.48,9233.94,9234.06,9232.5,9236.49
296.275,9194.5,9195.52,9196,9196.26,9194.5,9198.78
296.15,9191,9192.06,9192.57,9192.99,9191,9195.61
296.025,9201.5,9202.6,9203.13,9203.76,9201.5,9206.49
295.9,9300.5,9301.63,9302.2,9303.08,9300.5,9305.91
295.775,9135.5,9136.67,9137.26,9138.47,9135.5,9141.4
295.65,9118,9119.22,9119.83,9121.44,9118,9124.49
295.525,9160.5,9161.76,9162.4,9164.53,9160.5,9167.69
295.4,9068,9069.31,9070,9072.75,9068,9076.06
295.275,9098,9099.36,9100.1,9103.67,9098,9107.12
295.15,9038,9039.41,9040.19,9044.85,9038,9048.46
295.025,9109.5,9110.97,9111.79,9117.91,9109.5,9121.67
294.9,9039.5,9041.03,9041.89,9050.01,9039.5,9053.93
294.775,9024,9025.59,9026.49,9037.45,9024,9041.53
294.65,9004.5,9006.15,9007.09,9022.23,9004.5,9026.47
294.525,8985.5,8987.22,8988.23,9009.72,8985.5,9014.16
294.4,8917,8918.79,8919.89,8951.42,8917,8956.1
294.275,8972,8948.93,8950.11,8997.98,8947.06,9002.89
294.15,8954,8948.84,8950.09,9024.79,8946.89,9029.94
294.025,9016,8947.2,8948.53,9066.79,8945.17,9072.18
293.9,9074.5,8944.08,8945.48,9132.3,8941.96,9137.93
293.775,9315.5,8934.9,8936.36,9225.85,8932.68,9231.75
293.65,9375,8924.01,8925.55,9358.98,8921.69,9365.17
293.525,9565,8908.13,8909.83,9529.34,8905.7,9535.89
293.4,9803,8885.93,8887.81,9725.66,8883.41,9732.58
293.275,9893,8860.98,8862.99,9928.27,8858.32,9935.6
293.15,10045.5,8831.62,8833.62,10101.4,8828.83,10109
293.025,10265.5,8796.06,8798.21,10206,8793.13,10214
292.9,10169,8762.01,8764.34,10220.8,8758.95,10229.3
292.775,10156.5,8727.43,8729.95,10133.1,8724.22,10142.1
292.65,10024,8695.32,8698.02,9957.42,8691.93,9966.91
292.525,9677.5,8671.02,8673.93,9728.56,8667.44,9738.63
292.4,9528.5,8649.81,8652.96,9479.19,8646.04,9489.88
292.275,9274.5,8634.39,8637.82,9245.87,8630.43,9257.22
292.15,9085,8623.3,8627.04,9049.82,8619.13,9061.89
292.025,8935,8615.72,8619.75,8899.58,8611.29,8912.47
291.9,8761.5,8612.25,8616.64,8794.55,8607.55,8808.33
291.775,8689,8610.5,8615.29,8724.99,8605.53,8739.72
291.65,8600,8610.63,8615.91,8681.96,8605.4,8697.7
291.525,8606.5,8610.93,8616.72,8655.47,8605.37,8672.37
291.4,8640.5,8610.44,8616.77,8638.42,8604.5,8656.63
291.275,8566.5,8572.83,8579.8,8590.4,8566.5,8610.03
291.15,8570,8576.72,8584.44,8587.53,8570,8608.69
291.025,8518.5,8525.6,8534.23,8531.82,8518.5,8554.65
290.9,8606,8613.64,8623.17,8616.42,8606,8641.23
290.775,8625,8633.22,8643.8,8633.34,8625,8660.37
290.65,8546,8554.81,8566.65,8552.8,8546,8582.27
290.525,8751.5,8760.9,8774.26,8757.13,8751.5,8789.29
290.4,8612.5,8622.49,8637.68,8617.22,8612.5,8652.38
290.275,8682.5,8693.41,8710.46,8686.5,8682.5,8725.36
290.15,8678.5,8690.34,8709.68,8681.92,8678.5,8724.94
290.025,8699,8666.1,8688.25,8656.27,8653.32,8703.99
289.9,8582.5,8667.01,8692.65,8655.86,8653.29,8708.93
289.775,8479,8668,8697.82,8655.48,8653.23,8714.83
289.65,8711,8669.57,8704.08,8655.19,8653.21,8722.42
289.525,8827,8671.11,8711.62,8654.9,8653.15,8731.33
289.4,8884,8672.12,8720.87,8654.63,8653.07,8741.48
289.275,8969,8673.84,8732.4,8654.35,8652.96,8754.67
289.15,8905,8675.83,8747.01,8654.12,8652.87,8771.21
289.025,8912.5,8678.1,8765.82,8653.91,8652.78,8792.26
288.9,9150,8680.62,8790.24,8653.63,8652.61,8819.26
288.775,8972.5,8683.61,8822.49,8653.42,8652.5,8854.53
288.65,9098,8687.03,8865.54,8653.21,8652.35,8901.09
288.525,9164,8691.01,8923.23,8652.95,8652.17,8962.85
288.4,9223.5,8695.67,9000.92,8652.67,8651.97,9045.32
288.275,9279.5,8701.16,9105.4,8652.41,8651.75,9155.46
288.15,9553,8707.61,9244.61,8652.04,8651.44,9301.39
288.025,9564.5,8715.38,9428.83,8651.68,8651.12,9493.64
287.9,9538.5,8724.83,9668.27,8651.32,8650.81,9742.79
287.775,10007,8736.25,9973.53,8650.81,8650.34,10059.9
287.65,10265,8750.36,10354.7,8650.22,8649.78,10455.7
287.525,10713,8767.98,10817.4,8649.47,8649.07,10936.7
287.4,11287,8790.38,11363.6,8648.53,8648.15,11506.2
287.275,12040,8819.41,11987.2,8647.32,8646.97,12160
287.15,12974,8857.97,12673.3,8645.8,8645.47,12886.1
287.025,13886,8910.93,13398.2,8643.96,8643.65,13665.8
286.9,14731.5,8986.32,14128,8641.82,8641.54,14473.1
286.775,15533,9097.59,14822.3,8639.41,8639.14,15281
286.65,16042,9267.57,15436.6,8636.82,8636.57,16067.9
286.525,16862,9533.32,15928.3,8633.95,8633.72,16828.1
286.4,17419,9955.01,16258.7,8630.89,8630.66,17583.3
286.275,18068,10623.4,16402.7,8627.6,8627.39,18398.9
286.15,19156,11660.5,16348.2,8623.93,8623.73,19385.2
286.025,20641.5,13215.5,16097.8,8619.75,8619.56,20693.9
285.9,22486,15434.1,15673,8614.92,8614.74,22492.5
285.775,25280.5,18405.8,15104.7,8609.12,8608.96,24901.7
285.65,28324.5,22103,14434.2,8602.27,8602.11,27935.3
285.525,31547,26309.9,13706.1,8594.29,8594.14,31422
285.4,34881,30606.1,12963.1,8585.16,8585.01,34984.4
285.275,37810,34409,12242.7,8575,8574.86,38077
285.15,39813,37102.8,11574,8564.15,8564.02,40112.9
285.025,40506.5,38199.7,10977,8553.05,8552.92,40624
284.9,39316,37482.9,10461.7,8542.36,8542.24,39402.5
284.775,36893,35095.5,10031.2,8532.51,8532.4,36594.4
284.65,32953.5,31471.7,9681.16,8524.02,8523.92,32629
284.525,28403.5,27215.9,9403.47,8517.11,8517.01,28102.5
284.4,23581,22931.5,9188.5,8511.88,8511.78,23608.3
284.275,19327,19082.7,9024.55,8508.12,8508.03,19599.3
284.15,15993,15930,8901.42,8505.52,8505.43,16326.1
284.025,13658,13538.6,8809.71,8503.72,8503.64,13844.7
283.9,11985,11840.8,8741.56,8502.51,8502.43,12080
283.775,10825,10695.4,8691.06,8501.7,8501.62,10884.9
283.65,10090,9951.44,8653.3,8501.14,8501.07,10103.7
283.525,9557,9479.96,8624.85,8500.77,8500.7,9604.18
283.4,9170.5,9181.97,8603.2,8500.54,8500.47,9284.77
283.275,8986.5,8991.53,8586.43,8500.37,8500.3,9077.73
283.15,8755.5,8866.9,8573.34,8500.28,8500.21,8940.09
283.025,8776,8782.52,8562.88,8500.18,8500.12,8845.35
282.9,8614.5,8723.44,8554.45,8500.14,8500.08,8777.87
282.775,8596.5,8680.53,8547.54,8500.1,8500.04,8728.09
282.65,8516.5,8648.39,8541.82,8500.09,8500.04,8690.23
282.525,8586,8623.7,8537,8500.06,8500.01,8660.74
282.4,8511,8604.36,8532.94,8500.06,8500,8637.34
282.275,8488,8588.94,8529.46,8500.05,8500,8618.45
282.15,8498.5,8576.49,8526.48,8500.05,8500,8603.02
282.025,8513.5,8579.8,8537.39,8513.55,8513.5,8603.74
281.9,8511.5,8569.37,8533.14,8511.54,8511.5,8591.06
281.775,8410,8460.83,8429.67,8410.04,8410,8480.55
281.65,8515.5,8560.4,8533.44,8515.54,8515.5,8578.38
281.525,8430,8469.87,8446.41,8430.04,8430,8486.32
281.4,8469,8504.57,8484.05,8469.04,8469,8519.66
281.275,8400,8431.87,8413.84,8400.04,8400,8445.75
281.15,8360,8388.67,8372.75,8360.04,8360,8401.46
281.025,8301,8326.89,8312.78,8301.03,8301,8338.71
280.9,8417.5,8440.96,8428.41,8417.53,8417.5,8451.9
280.775,8503.5,8524.83,8513.62,8503.53,8503.5,8534.98
280.65,8392,8411.44,8401.41,8392.03,8392,8420.88
280.525,8472,8490.32,8480.76,8472.03,8472,8499.1
280.4,8401,8417.72,8409.17,8401.03,8401,8425.92
