,,,,,
,,,,,
Characteristic Energy eV,1486.6,Acquisition Time s,4,,
BE_Au 4f 1,CPS_Au 4f 1,Au 4f_1_Au 4f 1,Au 4f_2_Au 4f 1,Background_Au 4f 1,Envelope_Au 4f 1
95.4,4420,4420,4420,4420,4420
95.275,4418.25,4418.25,4418.25,4418.25,4418.25
95.15,4359.75,4359.75,4359.75,4359.75,4359.75
95.025,4371.5,4371.5,4371.5,4371.5,4371.5
94.9,4289.25,4289.25,4289.25,4289.25,4289.25
94.775,4307.75,4307.75,4307.75,4307.75,4307.75
94.65,4274.75,4274.75,4274.75,4274.75,4274.75
94.525,4267.75,4267.75,4267.75,4267.75,4267.75
94.4,4279,4279,4279,4279,4279
94.275,4222.5,4222.5,4222.5,4222.5,4222.5
94.15,4267.75,4267.75,4267.75,4267.75,4267.75
94.025,4185,4185,4185,4185,4185
93.9,4192.25,4192.25,4192.25,4192.25,4192.25
93.775,4166.25,4166.25,4166.25,4166.25,4166.25
93.65,4144.75,4144.75,4144.75,4144.75,4144.75
93.525,4072.75,4072.75,4072.75,4072.75,4072.75
93.4,4039.25,4039.25,4039.25,4039.25,4039.25
93.275,4034.75,4034.75,4034.75,4034.75,4034.75
93.15,3952.25,3952.25,3952.25,3952.25,3952.25
93.025,3949,3949,3949,3949,3949
92.9,3947.75,3947.75,3947.75,3947.75,3947.75
92.775,3904.5,3904.5,3904.5,3904.5,3904.5
92.65,3915,3915,3915,3915,3915
92.525,3856.5,3856.5,3856.5,3856.5,3856.5
92.4,3783.75,3783.75,3783.75,3783.75,3783.75
92.275,3779.75,3779.75,3779.76,3779.75,3779.76
92.15,3764.25,3764.25,3764.26,3764.25,3764.26
92.025,3737,3737,3737.02,3737,3737.02
91.9,3776.25,3776.25,3776.29,3776.25,3776.29
91.775,3770.25,3770.25,3770.31,3770.25,3770.31
91.65,3780.75,3780.75,3780.86,3780.75,3780.86
91.525,3764,3764,3764.19,3764,3764.19
91.4,3831.5,3831.5,3831.82,3831.5,3831.82
91.275,3810,3810,3810.55,3810,3810.55
91.15,3843.75,3843.75,3844.66,3843.75,3844.66
91.025,3854.25,3854.25,3855.74,3854.25,3855.74
90.9,3840,3840,3842.41,3840,3842.41
90.775,3887.75,3887.75,3891.6,3887.75,3891.6
90.65,3917.75,3917.75,3923.83,3917.75,3923.83
90.525,4019.25,4019.25,4028.73,4019.25,4028.73
90.4,3950.5,3950.5,3965.12,3950.5,3965.12
90.275,4053.75,4018.35,4040.61,4018.35,4040.61
90.15,4051.25,4018.2,4051.77,4018.2,4051.77
90.025,3987,4018.07,4068.09,4018.07,4068.09
89.9,4065.75,4017.86,4091.64,4017.86,4091.64
89.775,4055.5,4017.7,4125.45,4017.7,4125.45
89.65,4105.75,4017.31,4173.12,4017.31,4173.12
89.525,4123.5,4016.85,4240.32,4016.85,4240.32
89.4,4234,4015.9,4333.7,4015.9,4333.7
89.275,4302,4014.66,4463.25,4014.66,4463.25
89.15,4508.75,4012.51,4641.98,4012.51,4641.98
89.025,4746,4009.31,4887.54,4009.31,4887.54
88.9,5097,4004.57,5225.45,4004.57,5225.45
88.775,5595.25,3997.65,5690.19,3997.64,5690.19
88.65,6345.25,3987.42,6330.36,3987.42,6330.36
88.525,7297.75,3973.01,7219.25,3973,7219.26
88.4,8740.5,3952.25,8453.82,3952.23,8453.84
88.275,10512.5,3923.69,10174.9,3923.65,10174.9
88.15,13057.8,3883.93,12550.6,3883.86,12550.7
88.025,16363.5,3829.61,15712.1,3829.49,15712.3
87.9,20007.8,3759.23,19556.6,3759.02,19556.9
87.775,23197.8,3674.69,23291.5,3674.34,23291.9
87.65,25037,3581.88,25294.5,3581.27,25295.1
87.525,24284,3492.1,24268.5,3491.09,24269.5
87.4,21542.3,3414.11,20852.5,3412.45,20854.1
87.275,17334.5,3354.51,16766.9,3351.8,16769.6
87.15,13320.8,3312.72,13182.7,3308.38,13187
87.025,10135.8,3285.52,10419.9,3278.63,10426.7
86.9,7928.75,3269.17,8403.06,3258.38,8413.85
86.775,6588.5,3260.58,6950.2,3243.87,6966.91
86.65,5798.25,3258.29,5907.63,3232.74,5933.18
86.525,5056.25,3263.47,5156.84,3224.8,5195.51
86.4,4697.75,3276.23,4612.44,3218.38,4670.28
86.275,4382.75,3298.94,4217.92,3213.31,4303.56
86.15,4207.75,3334.49,3930.07,3208.98,4055.58
86.025,4069.5,3387.3,3720.38,3205.23,3902.45
85.9,3957.75,3463.92,3567.89,3201.95,3829.86
85.775,3967,3572.21,3456.64,3198.62,3830.23
85.65,4015,3723.77,3375.69,3195.06,3904.4
85.525,4184,3934.25,3316.08,3190.75,4059.58
85.4,4385,4224.65,3271.69,3185.55,4310.79
85.275,4744.25,4625.21,3237.43,3178.76,4683.88
85.15,5175,5176.84,3209.59,3170.07,5216.36
85.025,5871.5,5937.01,3184.65,3158.3,5963.36
84.9,7065.25,6990.23,3158.65,3141.28,7007.6
84.775,8436.5,8452.46,3129.53,3118.21,8463.78
84.65,10549,10491.5,3093.14,3085.84,10498.8
84.525,13554.5,13320.1,3044.88,3040.24,13324.7
84.4,17342.5,17149.2,2980.85,2977.93,17152.1
84.275,22103.3,22013,2896.43,2894.62,22014.8
84.15,26715.8,27248.4,2791.95,2790.84,27249.6
84.025,30155.8,31032.9,2672.31,2671.64,31033.5
83.9,30861.3,31169.8,2549.24,2548.83,31170.2
83.775,28073,27521.7,2437.88,2437.64,27522
83.65,22893.3,22145.2,2348.67,2348.53,22145.4
83.525,17340.3,17029.3,2283.3,2283.23,17029.4
83.4,12443.3,12948.5,2239.01,2238.97,12948.5
83.275,9032.75,9929.95,2209.4,2209.37,9929.98
83.15,6950.75,7748.19,2188.73,2188.72,7748.21
83.025,5365.75,6185.31,2174.88,2174.88,6185.32
82.9,4479.75,5061.01,2164.84,2164.83,5061.01
82.775,3890.75,4247.89,2157.32,2157.32,4247.9
82.65,3467,3659.48,2151.61,2151.61,3659.48
82.525,3080.75,3231.38,2147.56,2147.56,3231.38
82.4,2833,2920.33,2144.58,2144.58,2920.33
82.275,2697,2694.46,2142.17,2142.17,2694.46
82.15,2546.25,2530.83,2140.41,2140.41,2530.83
82.025,2499.5,2412.96,2138.85,2138.85,2412.96
81.9,2377.25,2328.6,2137.81,2137.81,2328.6
81.775,2310.5,2268.65,2137.06,2137.06,2268.65
81.65,2264.5,2226.44,2136.5,2136.5,2226.44
81.525,2183,2197.11,2136.3,2136.3,2197.11
81.4,2178,2176.82,2136.12,2136.12,2176.82
81.275,2154.25,2162.99,2136.04,2136.04,2162.99
81.15,2127.5,2153.63,2136,2136,2153.63
81.025,2126.25,2137.66,2126.25,2126.25,2137.66
80.9,2039.75,2047.04,2039.75,2039.75,2047.04
80.775,2088.25,2092.86,2088.25,2088.25,2092.86
80.65,2067,2069.87,2067,2067,2069.87
80.525,2027.5,2029.27,2027.5,2027.5,2029.27
80.4,2061.75,2062.83,2061.75,2061.75,2062.83
