,,,
,,,
Characteristic Energy eV,1486.6,Acquisition Time s,
BE_Sur1 1,CPS_Sur1 1,,
1352,31567.6,,
1351.6,31379.4,,
1351.2,32173.5,,
1350.8,30988.2,,
1350.4,31882.4,,
1350,31517.6,,
1349.6,31138.2,,
1349.2,31891.2,,
1348.8,31638.2,,
1348.4,31744.1,,
1348,31861.8,,
1347.6,31673.5,,
1347.2,31673.5,,
1346.8,31817.6,,
1346.4,31602.9,,
1346,31614.7,,
1345.6,31126.5,,
1345.2,31064.7,,
1344.8,31597.1,,
1344.4,31552.9,,
1344,31388.2,,
1343.6,31061.8,,
1343.2,31294.1,,
1342.8,31291.2,,
1342.4,30729.4,,
1342,31417.6,,
1341.6,31002.9,,
1341.2,31320.6,,
1340.8,31179.4,,
1340.4,30841.2,,
1340,30873.5,,
1339.6,30885.3,,
1339.2,31244.1,,
1338.8,31579.4,,
1338.4,30932.4,,
1338,31041.2,,
1337.6,30608.8,,
1337.2,30920.6,,
1336.8,30891.2,,
1336.4,30820.6,,
1336,30720.6,,
1335.6,30800,,
1335.2,30423.5,,
1334.8,30832.4,,
1334.4,30794.1,,
1334,30817.6,,
1333.6,30667.6,,
1333.2,30917.6,,
1332.8,30267.6,,
1332.4,30602.9,,
1332,30232.4,,
1331.6,30891.2,,
1331.2,31020.6,,
1330.8,30717.6,,
1330.4,30567.6,,
1330,30829.4,,
1329.6,30770.6,,
1329.2,30650,,
1328.8,30094.1,,
1328.4,30591.2,,
1328,30758.8,,
1327.6,30785.3,,
1327.2,30435.3,,
1326.8,30708.8,,
1326.4,30747.1,,
1326,30735.3,,
1325.6,29211.8,,
1325.2,30335.3,,
1324.8,30691.2,,
1324.4,30747.1,,
1324,30411.8,,
1323.6,30114.7,,
1323.2,30788.2,,
1322.8,30120.6,,
1322.4,30200,,
1322,30017.6,,
1321.6,30385.3,,
1321.2,30600,,
1320.8,30861.8,,
1320.4,30370.6,,
1320,31220.6,,
1319.6,30205.9,,
1319.2,30629.4,,
1318.8,30250,,
1318.4,30602.9,,
1318,30444.1,,
1317.6,30188.2,,
1317.2,30576.5,,
1316.8,30500,,
1316.4,30108.8,,
1316,29997.1,,
1315.6,30391.2,,
1315.2,30344.1,,
1314.8,30385.3,,
1314.4,30782.4,,
1314,30170.6,,
1313.6,30544.1,,
1313.2,29920.6,,
1312.8,29952.9,,
1312.4,30388.2,,
1312,30279.4,,
1311.6,29529.4,,
1311.2,30035.3,,
1310.8,30250,,
1310.4,29870.6,,
1310,30676.5,,
1309.6,30276.5,,
1309.2,30100,,
1308.8,30035.3,,
1308.4,30217.6,,
1308,29900,,
1307.6,30244.1,,
1307.2,31188.2,,
1306.8,30108.8,,
1306.4,30558.8,,
1306,30308.8,,
1305.6,30188.2,,
1305.2,30114.7,,
1304.8,30514.7,,
1304.4,30770.6,,
1304,30238.2,,
1303.6,30879.4,,
1303.2,30776.5,,
1302.8,30655.9,,
1302.4,30217.6,,
1302,30441.2,,
1301.6,30520.6,,
1301.2,30894.1,,
1300.8,30973.5,,
1300.4,29550,,
1300,30152.9,,
1299.6,30152.9,,
1299.2,30705.9,,
1298.8,30614.7,,
1298.4,30179.4,,
1298,30314.7,,
1297.6,30332.4,,
1297.2,30911.8,,
1296.8,30452.9,,
1296.4,30647.1,,
1296,30250,,
1295.6,30108.8,,
1295.2,30305.9,,
1294.8,31002.9,,
1294.4,30935.3,,
1294,30552.9,,
1293.6,30588.2,,
1293.2,30923.5,,
1292.8,30029.4,,
1292.4,30455.9,,
1292,30502.9,,
1291.6,31008.8,,
1291.2,30685.3,,
1290.8,30464.7,,
1290.4,30932.4,,
1290,30379.4,,
1289.6,31197.1,,
1289.2,30797.1,,
1288.8,30982.4,,
1288.4,30958.8,,
1288,30576.5,,
1287.6,30952.9,,
1287.2,30685.3,,
1286.8,30764.7,,
1286.4,30764.7,,
1286,30420.6,,
1285.6,31417.6,,
1285.2,31470.6,,
1284.8,31602.9,,
1284.4,31611.8,,
1284,30867.6,,
1283.6,31002.9,,
1283.2,31294.1,,
1282.8,31105.9,,
1282.4,31652.9,,
1282,31105.9,,
1281.6,31091.2,,
1281.2,30952.9,,
1280.8,31220.6,,
1280.4,31320.6,,
1280,30729.4,,
1279.6,30808.8,,
1279.2,31211.8,,
1278.8,31332.4,,
1278.4,31344.1,,
1278,30755.9,,
1277.6,31005.9,,
1277.2,31432.4,,
1276.8,31061.8,,
1276.4,31491.2,,
1276,31232.4,,
1275.6,31764.7,,
1275.2,31211.8,,
1274.8,31170.6,,
1274.4,31050,,
1274,31867.6,,
1273.6,31673.5,,
1273.2,31629.4,,
1272.8,31747.1,,
1272.4,31576.5,,
1272,30944.1,,
1271.6,31205.9,,
1271.2,31379.4,,
1270.8,31541.2,,
1270.4,32164.7,,
1270,31147.1,,
1269.6,32279.4,,
1269.2,31500,,
1268.8,32194.1,,
1268.4,31264.7,,
1268,31900,,
1267.6,31641.2,,
1267.2,31632.4,,
1266.8,31352.9,,
1266.4,31720.6,,
1266,31855.9,,
1265.6,31861.8,,
1265.2,32005.9,,
1264.8,31688.2,,
1264.4,31702.9,,
1264,31523.5,,
1263.6,32150,,
1263.2,31702.9,,
1262.8,32373.5,,
1262.4,32005.9,,
1262,31882.4,,
1261.6,31579.4,,
1261.2,32314.7,,
1260.8,32541.2,,
1260.4,32152.9,,
1260,32129.4,,
1259.6,32214.7,,
1259.2,32523.5,,
1258.8,32123.5,,
1258.4,32667.6,,
1258,32376.5,,
1257.6,32161.8,,
1257.2,32191.2,,
1256.8,31994.1,,
1256.4,31861.8,,
1256,32638.2,,
1255.6,31964.7,,
1255.2,32652.9,,
1254.8,32150,,
1254.4,32447.1,,
1254,32173.5,,
1253.6,32205.9,,
1253.2,32535.3,,
1252.8,32561.8,,
1252.4,32452.9,,
1252,33226.5,,
1251.6,33014.7,,
1251.2,32682.4,,
1250.8,33461.8,,
1250.4,33000,,
1250,33244.1,,
1249.6,33108.8,,
1249.2,33152.9,,
1248.8,33317.6,,
1248.4,33258.8,,
1248,33329.4,,
1247.6,33805.9,,
1247.2,33782.4,,
1246.8,33182.4,,
1246.4,33417.6,,
1246,33164.7,,
1245.6,33891.2,,
1245.2,33641.2,,
1244.8,33338.2,,
1244.4,33208.8,,
1244,33538.2,,
1243.6,33311.8,,
1243.2,33758.8,,
1242.8,33638.2,,
1242.4,33594.1,,
1242,33573.5,,
1241.6,34067.6,,
1241.2,34294.1,,
1240.8,32714.7,,
1240.4,33358.8,,
1240,33532.4,,
1239.6,33476.5,,
1239.2,33747.1,,
1238.8,33958.8,,
1238.4,34085.3,,
1238,34194.1,,
1237.6,33808.8,,
1237.2,33852.9,,
1236.8,33552.9,,
1236.4,33658.8,,
1236,33150,,
1235.6,33344.1,,
1235.2,33402.9,,
1234.8,33270.6,,
1234.4,33741.2,,
1234,33558.8,,
1233.6,33770.6,,
1233.2,34102.9,,
1232.8,34214.7,,
1232.4,34420.6,,
1232,34717.6,,
1231.6,34614.7,,
1231.2,34714.7,,
1230.8,35267.6,,
1230.4,35194.1,,
1230,34923.5,,
1229.6,35382.4,,
1229.2,35964.7,,
1228.8,36400,,
1228.4,36417.6,,
1228,36329.4,,
1227.6,36182.4,,
1227.2,35844.1,,
1226.8,35382.4,,
1226.4,35617.6,,
1226,35952.9,,
1225.6,35558.8,,
1225.2,36005.9,,
1224.8,35638.2,,
1224.4,35952.9,,
1224,35458.8,,
1223.6,35976.5,,
1223.2,35302.9,,
1222.8,35720.6,,
1222.4,35952.9,,
1222,35576.5,,
1221.6,34714.7,,
1221.2,35011.8,,
1220.8,34494.1,,
1220.4,34229.4,,
1220,34382.4,,
1219.6,34005.9,,
1219.2,33929.4,,
1218.8,33685.3,,
1218.4,33658.8,,
1218,32635.3,,
1217.6,32776.5,,
1217.2,32829.4,,
1216.8,32408.8,,
1216.4,31755.9,,
1216,31929.4,,
1215.6,31635.3,,
1215.2,31594.1,,
1214.8,31785.3,,
1214.4,30873.5,,
1214,31497.1,,
1213.6,31032.4,,
1213.2,30694.1,,
1212.8,31285.3,,
1212.4,30808.8,,
1212,30805.9,,
1211.6,30979.4,,
1211.2,30823.5,,
1210.8,30929.4,,
1210.4,30717.6,,
1210,31317.6,,
1209.6,30897.1,,
1209.2,30844.1,,
1208.8,30917.6,,
1208.4,30208.8,,
1208,30529.4,,
1207.6,30897.1,,
1207.2,30652.9,,
1206.8,30994.1,,
1206.4,30744.1,,
1206,31082.4,,
1205.6,30817.6,,
1205.2,31344.1,,
1204.8,31020.6,,
1204.4,30314.7,,
1204,30776.5,,
1203.6,30985.3,,
1203.2,31411.8,,
1202.8,30785.3,,
1202.4,31650,,
1202,30791.2,,
1201.6,31308.8,,
1201.2,30805.9,,
1200.8,30205.9,,
1200.4,31011.8,,
1200,31185.3,,
1199.6,31173.5,,
1199.2,31547.1,,
1198.8,30855.9,,
1198.4,31588.2,,
1198,31379.4,,
1197.6,30885.3,,
1197.2,31550,,
1196.8,31455.9,,
1196.4,30955.9,,
1196,31261.8,,
1195.6,31261.8,,
1195.2,31514.7,,
1194.8,31044.1,,
1194.4,31020.6,,
1194,32079.4,,
1193.6,31326.5,,
1193.2,31420.6,,
1192.8,31420.6,,
1192.4,31444.1,,
1192,31035.3,,
1191.6,31750,,
1191.2,31179.4,,
1190.8,31132.4,,
1190.4,31611.8,,
1190,31314.7,,
1189.6,31723.5,,
1189.2,31108.8,,
1188.8,31441.2,,
1188.4,31026.5,,
1188,31270.6,,
1187.6,32502.9,,
1187.2,31923.5,,
1186.8,31926.5,,
1186.4,31785.3,,
1186,31597.1,,
1185.6,31608.8,,
1185.2,31988.2,,
1184.8,32323.5,,
1184.4,32002.9,,
1184,32044.1,,
1183.6,32152.9,,
1183.2,31682.4,,
1182.8,32417.6,,
1182.4,31767.6,,
1182,31841.2,,
1181.6,32164.7,,
1181.2,32361.8,,
1180.8,32205.9,,
1180.4,32352.9,,
1180,31961.8,,
1179.6,32544.1,,
1179.2,32141.2,,
1178.8,31991.2,,
1178.4,32002.9,,
1178,32585.3,,
1177.6,32050,,
1177.2,32691.2,,
1176.8,32564.7,,
1176.4,31905.9,,
1176,32082.4,,
1175.6,32350,,
1175.2,32585.3,,
1174.8,32105.9,,
1174.4,32244.1,,
1174,32300,,
1173.6,32500,,
1173.2,32400,,
1172.8,32770.6,,
1172.4,32500,,
1172,32632.4,,
1171.6,32841.2,,
1171.2,32391.2,,
1170.8,32973.5,,
1170.4,33047.1,,
1170,33076.5,,
1169.6,33138.2,,
1169.2,33173.5,,
1168.8,33032.4,,
1168.4,32741.2,,
1168,32702.9,,
1167.6,33123.5,,
1167.2,33267.6,,
1166.8,33444.1,,
1166.4,33232.4,,
1166,33023.5,,
1165.6,33044.1,,
1165.2,33085.3,,
1164.8,32938.2,,
1164.4,33426.5,,
1164,33191.2,,
1163.6,33291.2,,
1163.2,33964.7,,
1162.8,33864.7,,
1162.4,33814.7,,
1162,33597.1,,
1161.6,33323.5,,
1161.2,33511.8,,
1160.8,33447.1,,
1160.4,34029.4,,
1160,33944.1,,
1159.6,33429.4,,
1159.2,32920.6,,
1158.8,33847.1,,
1158.4,34138.2,,
1158,33600,,
1157.6,33261.8,,
1157.2,33626.5,,
1156.8,33970.6,,
1156.4,34155.9,,
1156,33597.1,,
1155.6,33855.9,,
1155.2,34167.6,,
1154.8,33802.9,,
1154.4,34232.4,,
1154,34105.9,,
1153.6,34158.8,,
1153.2,33794.1,,
1152.8,34400,,
1152.4,34773.5,,
1152,34111.8,,
1151.6,33976.5,,
1151.2,34120.6,,
1150.8,34161.8,,
1150.4,33629.4,,
1150,33950,,
1149.6,34258.8,,
1149.2,34032.4,,
1148.8,34888.2,,
1148.4,34741.2,,
1148,34429.4,,
1147.6,34882.4,,
1147.2,34402.9,,
1146.8,34867.6,,
1146.4,35114.7,,
1146,34776.5,,
1145.6,34750,,
1145.2,34708.8,,
1144.8,34638.2,,
1144.4,34882.4,,
1144,34955.9,,
1143.6,35061.8,,
1143.2,34973.5,,
1142.8,35041.2,,
1142.4,34258.8,,
1142,35014.7,,
1141.6,34826.5,,
1141.2,34870.6,,
1140.8,35088.2,,
1140.4,35176.5,,
1140,35044.1,,
1139.6,34858.8,,
1139.2,34850,,
1138.8,35258.8,,
1138.4,35552.9,,
1138,34858.8,,
1137.6,35185.3,,
1137.2,35720.6,,
1136.8,35070.6,,
1136.4,35164.7,,
1136,35711.8,,
1135.6,35391.2,,
1135.2,35132.4,,
1134.8,35094.1,,
1134.4,35129.4,,
1134,34947.1,,
1133.6,34944.1,,
1133.2,35544.1,,
1132.8,35858.8,,
1132.4,35432.4,,
1132,35370.6,,
1131.6,36014.7,,
1131.2,35711.8,,
1130.8,35338.2,,
1130.4,35791.2,,
1130,35935.3,,
1129.6,35526.5,,
1129.2,35917.6,,
1128.8,35644.1,,
1128.4,35755.9,,
1128,35755.9,,
1127.6,36288.2,,
1127.2,35223.5,,
1126.8,36291.2,,
1126.4,35932.4,,
1126,36158.8,,
1125.6,36091.2,,
1125.2,36138.2,,
1124.8,36097.1,,
1124.4,36247.1,,
1124,35588.2,,
1123.6,36282.4,,
1123.2,36011.8,,
1122.8,35814.7,,
1122.4,36226.5,,
1122,36438.2,,
1121.6,36414.7,,
1121.2,36511.8,,
1120.8,36276.5,,
1120.4,37067.6,,
1120,36500,,
1119.6,36285.3,,
1119.2,36408.8,,
1118.8,36152.9,,
1118.4,36655.9,,
1118,36929.4,,
1117.6,36920.6,,
1117.2,36900,,
1116.8,36608.8,,
1116.4,37479.4,,
1116,36702.9,,
1115.6,37382.4,,
1115.2,36897.1,,
1114.8,36564.7,,
1114.4,36629.4,,
1114,36529.4,,
1113.6,36697.1,,
1113.2,37141.2,,
1112.8,36755.9,,
1112.4,37138.2,,
1112,36750,,
1111.6,37338.2,,
1111.2,37255.9,,
1110.8,36826.5,,
1110.4,37588.2,,
1110,37397.1,,
1109.6,37635.3,,
1109.2,37494.1,,
1108.8,37064.7,,
1108.4,37650,,
1108,37314.7,,
1107.6,37314.7,,
1107.2,36826.5,,
1106.8,37423.5,,
1106.4,37394.1,,
1106,37311.8,,
1105.6,37961.8,,
1105.2,37032.4,,
1104.8,37717.6,,
1104.4,37405.9,,
1104,37950,,
1103.6,37052.9,,
1103.2,37729.4,,
1102.8,37835.3,,
1102.4,38055.9,,
1102,37591.2,,
1101.6,38055.9,,
1101.2,38505.9,,
1100.8,37397.1,,
1100.4,38126.5,,
1100,37694.1,,
1099.6,37879.4,,
1099.2,37364.7,,
1098.8,38694.1,,
1098.4,37850,,
1098,37741.2,,
1097.6,37885.3,,
1097.2,38302.9,,
1096.8,37555.9,,
1096.4,38176.5,,
1096,38285.3,,
1095.6,38144.1,,
1095.2,37797.1,,
1094.8,38285.3,,
1094.4,37638.2,,
1094,38370.6,,
1093.6,37435.3,,
1093.2,37779.4,,
1092.8,37776.5,,
1092.4,38170.6,,
1092,38264.7,,
1091.6,38235.3,,
1091.2,38291.2,,
1090.8,37688.2,,
1090.4,38264.7,,
1090,38008.8,,
1089.6,37952.9,,
1089.2,38767.6,,
1088.8,37994.1,,
1088.4,38485.3,,
1088,38200,,
1087.6,39020.6,,
1087.2,38694.1,,
1086.8,38226.5,,
1086.4,38429.4,,
1086,37864.7,,
1085.6,38958.8,,
1085.2,38258.8,,
1084.8,39135.3,,
1084.4,38841.2,,
1084,38220.6,,
1083.6,38597.1,,
1083.2,39361.8,,
1082.8,38770.6,,
1082.4,39500,,
1082,39364.7,,
1081.6,38361.8,,
1081.2,39182.4,,
1080.8,38514.7,,
1080.4,39091.2,,
1080,38844.1,,
1079.6,38952.9,,
1079.2,39455.9,,
1078.8,39573.5,,
1078.4,39405.9,,
1078,39267.6,,
1077.6,39338.2,,
1077.2,39379.4,,
1076.8,39550,,
1076.4,39217.6,,
1076,39255.9,,
1075.6,39117.6,,
1075.2,39247.1,,
1074.8,39864.7,,
1074.4,39511.8,,
1074,40158.8,,
1073.6,39776.5,,
1073.2,39729.4,,
1072.8,39394.1,,
1072.4,39844.1,,
1072,40214.7,,
1071.6,39741.2,,
1071.2,40367.6,,
1070.8,39697.1,,
1070.4,39291.2,,
1070,39829.4,,
1069.6,40311.8,,
1069.2,39920.6,,
1068.8,40138.2,,
1068.4,40252.9,,
1068,40941.2,,
1067.6,39723.5,,
1067.2,40182.4,,
1066.8,40326.5,,
1066.4,39982.4,,
1066,40435.3,,
1065.6,40176.5,,
1065.2,40708.8,,
1064.8,40250,,
1064.4,40617.6,,
1064,40547.1,,
1063.6,40597.1,,
1063.2,39950,,
1062.8,40594.1,,
1062.4,40752.9,,
1062,41141.2,,
1061.6,41032.4,,
1061.2,40550,,
1060.8,40826.5,,
1060.4,40670.6,,
1060,40502.9,,
1059.6,40779.4,,
1059.2,41835.3,,
1058.8,40802.9,,
1058.4,41073.5,,
1058,41332.4,,
1057.6,41505.9,,
1057.2,41267.6,,
1056.8,41005.9,,
1056.4,41620.6,,
1056,41302.9,,
1055.6,41267.6,,
1055.2,41894.1,,
1054.8,40947.1,,
1054.4,41658.8,,
1054,41338.2,,
1053.6,41111.8,,
1053.2,41041.2,,
1052.8,41767.6,,
1052.4,41082.4,,
1052,42320.6,,
1051.6,42185.3,,
1051.2,41829.4,,
1050.8,41811.8,,
1050.4,42238.2,,
1050,41311.8,,
1049.6,42158.8,,
1049.2,41491.2,,
1048.8,41820.6,,
1048.4,41414.7,,
1048,41564.7,,
1047.6,42035.3,,
1047.2,41914.7,,
1046.8,42288.2,,
1046.4,41829.4,,
1046,42029.4,,
1045.6,42579.4,,
1045.2,42523.5,,
1044.8,42488.2,,
1044.4,42544.1,,
1044,42450,,
1043.6,42205.9,,
1043.2,42555.9,,
1042.8,42823.5,,
1042.4,42497.1,,
1042,42205.9,,
1041.6,42944.1,,
1041.2,42729.4,,
1040.8,42411.8,,
1040.4,42614.7,,
1040,42444.1,,
1039.6,42538.2,,
1039.2,42547.1,,
1038.8,42988.2,,
1038.4,43088.2,,
1038,43223.5,,
1037.6,42408.8,,
1037.2,42644.1,,
1036.8,43447.1,,
1036.4,42855.9,,
1036,43079.4,,
1035.6,43797.1,,
1035.2,43026.5,,
1034.8,43141.2,,
1034.4,43129.4,,
1034,43626.5,,
1033.6,43258.8,,
1033.2,43102.9,,
1032.8,43382.4,,
1032.4,43702.9,,
1032,43555.9,,
1031.6,43491.2,,
1031.2,43420.6,,
1030.8,43164.7,,
1030.4,43394.1,,
1030,43352.9,,
1029.6,44188.2,,
1029.2,43811.8,,
1028.8,44035.3,,
1028.4,44500,,
1028,43517.6,,
1027.6,43861.8,,
1027.2,43379.4,,
1026.8,43967.6,,
1026.4,44091.2,,
1026,44191.2,,
1025.6,44323.5,,
1025.2,44105.9,,
1024.8,44329.4,,
1024.4,44232.4,,
1024,44297.1,,
1023.6,44455.9,,
1023.2,44285.3,,
1022.8,45005.9,,
1022.4,44852.9,,
1022,44823.5,,
1021.6,45491.2,,
1021.2,45258.8,,
1020.8,44947.1,,
1020.4,44273.5,,
1020,45467.6,,
1019.6,45355.9,,
1019.2,44750,,
1018.8,45194.1,,
1018.4,45047.1,,
1018,44958.8,,
1017.6,45170.6,,
1017.2,44473.5,,
1016.8,45214.7,,
1016.4,44620.6,,
1016,44682.4,,
1015.6,44950,,
1015.2,45485.3,,
1014.8,44629.4,,
1014.4,44826.5,,
1014,45679.4,,
1013.6,45035.3,,
1013.2,45564.7,,
1012.8,45397.1,,
1012.4,45344.1,,
1012,45502.9,,
1011.6,45400,,
1011.2,45032.4,,
1010.8,45805.9,,
1010.4,45541.2,,
1010,45520.6,,
1009.6,45291.2,,
1009.2,45620.6,,
1008.8,45517.6,,
1008.4,45670.6,,
1008,45532.4,,
1007.6,45255.9,,
1007.2,45247.1,,
1006.8,45632.4,,
1006.4,46417.6,,
1006,46344.1,,
1005.6,45732.4,,
1005.2,46738.2,,
1004.8,46026.5,,
1004.4,46917.6,,
1004,45970.6,,
1003.6,47441.2,,
1003.2,46905.9,,
1002.8,46605.9,,
1002.4,46600,,
1002,46747.1,,
1001.6,47476.5,,
1001.2,47250,,
1000.8,47052.9,,
1000.4,47108.8,,
1000,46932.4,,
999.6,46964.7,,
999.2,47291.2,,
998.8,47252.9,,
998.4,46914.7,,
998,46394.1,,
997.6,47429.4,,
997.2,47429.4,,
996.8,47261.8,,
996.4,46520.6,,
996,47205.9,,
995.6,46952.9,,
995.2,46361.8,,
994.8,46679.4,,
994.4,47552.9,,
994,46608.8,,
993.6,46197.1,,
993.2,47426.5,,
992.8,46705.9,,
992.4,47267.6,,
992,46294.1,,
991.6,46364.7,,
991.2,46188.2,,
990.8,45517.6,,
990.4,46755.9,,
990,46191.2,,
989.6,46520.6,,
989.2,46941.2,,
988.8,47005.9,,
988.4,46641.2,,
988,46644.1,,
987.6,46420.6,,
987.2,46926.5,,
986.8,46785.3,,
986.4,47282.4,,
986,47135.3,,
985.6,46817.6,,
985.2,46941.2,,
984.8,47323.5,,
984.4,47558.8,,
984,47670.6,,
983.6,47650,,
983.2,48147.1,,
982.8,47482.4,,
982.4,47879.4,,
982,48620.6,,
981.6,48670.6,,
981.2,48935.3,,
980.8,48932.4,,
980.4,49458.8,,
980,49023.5,,
979.6,49658.8,,
979.2,49855.9,,
978.8,49979.4,,
978.4,49897.1,,
978,49897.1,,
977.6,50076.5,,
977.2,49600,,
976.8,48908.8,,
976.4,49461.8,,
976,49629.4,,
975.6,49214.7,,
975.2,48414.7,,
974.8,48391.2,,
974.4,48855.9,,
974,48379.4,,
973.6,48111.8,,
973.2,48776.5,,
972.8,47591.2,,
972.4,48770.6,,
972,47291.2,,
971.6,47844.1,,
971.2,48170.6,,
970.8,47867.6,,
970.4,47861.8,,
970,47205.9,,
969.6,47267.6,,
969.2,48167.6,,
968.8,46802.9,,
968.4,46797.1,,
968,46847.1,,
967.6,46455.9,,
967.2,46685.3,,
966.8,46938.2,,
966.4,46444.1,,
966,46114.7,,
965.6,46764.7,,
965.2,46861.8,,
964.8,47067.6,,
964.4,46676.5,,
964,47726.5,,
963.6,47602.9,,
963.2,46785.3,,
962.8,47485.3,,
962.4,47267.6,,
962,46544.1,,
961.6,47323.5,,
961.2,47005.9,,
960.8,46911.8,,
960.4,46867.6,,
960,47067.6,,
959.6,48144.1,,
959.2,47470.6,,
958.8,47729.4,,
958.4,48250,,
958,46979.4,,
957.6,48041.2,,
957.2,47773.5,,
956.8,46835.3,,
956.4,47285.3,,
956,47655.9,,
955.6,47211.8,,
955.2,46935.3,,
954.8,47558.8,,
954.4,47952.9,,
954,47382.4,,
953.6,47829.4,,
953.2,47658.8,,
952.8,47688.2,,
952.4,47405.9,,
952,47714.7,,
951.6,46938.2,,
951.2,47620.6,,
950.8,47370.6,,
950.4,47844.1,,
950,47147.1,,
949.6,46847.1,,
949.2,47647.1,,
948.8,46470.6,,
948.4,47570.6,,
948,47158.8,,
947.6,47108.8,,
947.2,46973.5,,
946.8,47161.8,,
946.4,47273.5,,
946,48185.3,,
945.6,48111.8,,
945.2,47876.5,,
944.8,47832.4,,
944.4,48582.4,,
944,48373.5,,
943.6,47644.1,,
943.2,47908.8,,
942.8,48129.4,,
942.4,48191.2,,
942,48297.1,,
941.6,48117.6,,
941.2,48076.5,,
940.8,48779.4,,
940.4,48270.6,,
940,48838.2,,
939.6,48741.2,,
939.2,48305.9,,
938.8,48632.4,,
938.4,48355.9,,
938,47861.8,,
937.6,48670.6,,
937.2,47732.4,,
936.8,48158.8,,
936.4,48514.7,,
936,48991.2,,
935.6,49229.4,,
935.2,50097.1,,
934.8,50020.6,,
934.4,49020.6,,
934,50155.9,,
933.6,48250,,
933.2,49370.6,,
932.8,49267.6,,
932.4,49570.6,,
932,49670.6,,
931.6,49132.4,,
931.2,48385.3,,
930.8,49323.5,,
930.4,48002.9,,
930,48435.3,,
929.6,48744.1,,
929.2,48370.6,,
928.8,48450,,
928.4,47955.9,,
928,48488.2,,
927.6,48364.7,,
927.2,48814.7,,
926.8,48752.9,,
926.4,49014.7,,
926,49600,,
925.6,49161.8,,
925.2,48873.5,,
924.8,49138.2,,
924.4,48711.8,,
924,48676.5,,
923.6,49744.1,,
923.2,48788.2,,
922.8,49511.8,,
922.4,49341.2,,
922,49076.5,,
921.6,48938.2,,
921.2,48823.5,,
920.8,49426.5,,
920.4,49223.5,,
920,49647.1,,
919.6,49776.5,,
919.2,49714.7,,
918.8,49135.3,,
918.4,49800,,
918,49761.8,,
917.6,49997.1,,
917.2,49932.4,,
916.8,49279.4,,
916.4,49170.6,,
916,49741.2,,
915.6,49394.1,,
915.2,49979.4,,
914.8,49338.2,,
914.4,48929.4,,
914,49929.4,,
913.6,50550,,
913.2,50255.9,,
912.8,49420.6,,
912.4,50779.4,,
912,50470.6,,
911.6,50835.3,,
911.2,49755.9,,
910.8,50214.7,,
910.4,49664.7,,
910,50214.7,,
909.6,49852.9,,
909.2,50382.4,,
908.8,50097.1,,
908.4,50988.2,,
908,50652.9,,
907.6,50632.4,,
907.2,50764.7,,
906.8,50491.2,,
906.4,50732.4,,
906,50800,,
905.6,50555.9,,
905.2,51311.8,,
904.8,50473.5,,
904.4,50852.9,,
904,51170.6,,
903.6,50388.2,,
903.2,51047.1,,
902.8,50961.8,,
902.4,50955.9,,
902,51491.2,,
901.6,50823.5,,
901.2,51100,,
900.8,50450,,
900.4,51758.8,,
900,51376.5,,
899.6,51097.1,,
899.2,50594.1,,
898.8,51576.5,,
898.4,51397.1,,
898,51585.3,,
897.6,51144.1,,
897.2,51285.3,,
896.8,51585.3,,
896.4,51100,,
896,51426.5,,
895.6,51661.8,,
895.2,51420.6,,
894.8,51441.2,,
894.4,51126.5,,
894,51673.5,,
893.6,52100,,
893.2,51335.3,,
892.8,51964.7,,
892.4,52076.5,,
892,52491.2,,
891.6,51458.8,,
891.2,52058.8,,
890.8,52555.9,,
890.4,51694.1,,
890,52035.3,,
889.6,51582.4,,
889.2,52402.9,,
888.8,51473.5,,
888.4,52344.1,,
888,52052.9,,
887.6,52770.6,,
887.2,51173.5,,
886.8,52514.7,,
886.4,52276.5,,
886,52647.1,,
885.6,53514.7,,
885.2,52558.8,,
884.8,52888.2,,
884.4,53555.9,,
884,52676.5,,
883.6,52091.2,,
883.2,52320.6,,
882.8,52702.9,,
882.4,53276.5,,
882,53326.5,,
881.6,53994.1,,
881.2,53152.9,,
880.8,53302.9,,
880.4,52673.5,,
880,53102.9,,
879.6,53185.3,,
879.2,52902.9,,
878.8,52991.2,,
878.4,53111.8,,
878,53111.8,,
877.6,53555.9,,
877.2,54282.4,,
876.8,53364.7,,
876.4,53435.3,,
876,52747.1,,
875.6,53000,,
875.2,53491.2,,
874.8,54314.7,,
874.4,53905.9,,
874,53473.5,,
873.6,53773.5,,
873.2,53741.2,,
872.8,53805.9,,
872.4,53511.8,,
872,53679.4,,
871.6,54350,,
871.2,53191.2,,
870.8,53785.3,,
870.4,53794.1,,
870,54217.6,,
869.6,53191.2,,
869.2,53541.2,,
868.8,53476.5,,
868.4,53417.6,,
868,54055.9,,
867.6,54008.8,,
867.2,54152.9,,
866.8,53176.5,,
866.4,53638.2,,
866,55094.1,,
865.6,54252.9,,
865.2,54229.4,,
864.8,54344.1,,
864.4,54947.1,,
864,54705.9,,
863.6,55538.2,,
863.2,55229.4,,
862.8,54864.7,,
862.4,55250,,
862,55411.8,,
861.6,55935.3,,
861.2,55705.9,,
860.8,55435.3,,
860.4,55564.7,,
860,55300,,
859.6,55320.6,,
859.2,55317.6,,
858.8,55005.9,,
858.4,56467.6,,
858,55373.5,,
857.6,55632.4,,
857.2,55135.3,,
856.8,55947.1,,
856.4,55344.1,,
856,55829.4,,
855.6,55397.1,,
855.2,55182.4,,
854.8,55770.6,,
854.4,55879.4,,
854,55923.5,,
853.6,55329.4,,
853.2,55497.1,,
852.8,55244.1,,
852.4,55423.5,,
852,55644.1,,
851.6,55726.5,,
851.2,54920.6,,
850.8,55785.3,,
850.4,55179.4,,
850,54923.5,,
849.6,55264.7,,
849.2,55317.6,,
848.8,54973.5,,
848.4,55844.1,,
848,54764.7,,
847.6,55955.9,,
847.2,55341.2,,
846.8,55288.2,,
846.4,54767.6,,
846,55491.2,,
845.6,54911.8,,
845.2,54947.1,,
844.8,55238.2,,
844.4,54661.8,,
844,55438.2,,
843.6,54229.4,,
843.2,55220.6,,
842.8,55720.6,,
842.4,55505.9,,
842,56194.1,,
841.6,55638.2,,
841.2,55944.1,,
840.8,55126.5,,
840.4,56173.5,,
840,56223.5,,
839.6,56355.9,,
839.2,55850,,
838.8,57211.8,,
838.4,56608.8,,
838,56538.2,,
837.6,57535.3,,
837.2,58497.1,,
836.8,57870.6,,
836.4,58950,,
836,57920.6,,
835.6,59194.1,,
835.2,58755.9,,
834.8,58926.5,,
834.4,60129.4,,
834,59370.6,,
833.6,59808.8,,
833.2,60679.4,,
832.8,59961.8,,
832.4,59261.8,,
832,59432.4,,
831.6,58623.5,,
831.2,58323.5,,
830.8,57967.6,,
830.4,58020.6,,
830,57867.6,,
829.6,57488.2,,
829.2,57244.1,,
828.8,56991.2,,
828.4,57564.7,,
828,56414.7,,
827.6,57094.1,,
827.2,57247.1,,
826.8,56814.7,,
826.4,57050,,
826,56726.5,,
825.6,56594.1,,
825.2,56226.5,,
824.8,55661.8,,
824.4,55820.6,,
824,55641.2,,
823.6,55100,,
823.2,55520.6,,
822.8,55100,,
822.4,55147.1,,
822,55702.9,,
821.6,55155.9,,
821.2,55667.6,,
820.8,54729.4,,
820.4,55214.7,,
820,55102.9,,
819.6,55811.8,,
819.2,55567.6,,
818.8,54900,,
818.4,55564.7,,
818,55214.7,,
817.6,55138.2,,
817.2,55641.2,,
816.8,55085.3,,
816.4,54891.2,,
816,55864.7,,
815.6,55814.7,,
815.2,55429.4,,
814.8,55761.8,,
814.4,55847.1,,
814,55588.2,,
813.6,55885.3,,
813.2,55929.4,,
812.8,55811.8,,
812.4,55273.5,,
812,56491.2,,
811.6,55735.3,,
811.2,55773.5,,
810.8,56055.9,,
810.4,55870.6,,
810,55988.2,,
809.6,55123.5,,
809.2,55438.2,,
808.8,56300,,
808.4,55961.8,,
808,55585.3,,
807.6,55908.8,,
807.2,55920.6,,
806.8,56273.5,,
806.4,56202.9,,
806,55535.3,,
805.6,55973.5,,
805.2,56105.9,,
804.8,55997.1,,
804.4,56132.4,,
804,56523.5,,
803.6,56294.1,,
803.2,55964.7,,
802.8,56855.9,,
802.4,56223.5,,
802,57050,,
801.6,57438.2,,
801.2,56841.2,,
800.8,56605.9,,
800.4,55723.5,,
800,56308.8,,
799.6,57094.1,,
799.2,56917.6,,
798.8,57223.5,,
798.4,57002.9,,
798,56632.4,,
797.6,57426.5,,
797.2,56420.6,,
796.8,56594.1,,
796.4,57352.9,,
796,56697.1,,
795.6,57117.6,,
795.2,57273.5,,
794.8,57402.9,,
794.4,57429.4,,
794,57420.6,,
793.6,57535.3,,
793.2,57308.8,,
792.8,57247.1,,
792.4,58267.6,,
792,56750,,
791.6,57552.9,,
791.2,57323.5,,
790.8,57682.4,,
790.4,57388.2,,
790,57264.7,,
789.6,57500,,
789.2,58014.7,,
788.8,57476.5,,
788.4,58614.7,,
788,57264.7,,
787.6,56376.5,,
787.2,57408.8,,
786.8,57805.9,,
786.4,57226.5,,
786,57823.5,,
785.6,58126.5,,
785.2,57876.5,,
784.8,58332.4,,
784.4,58888.2,,
784,57955.9,,
783.6,58511.8,,
783.2,58408.8,,
782.8,58417.6,,
782.4,57691.2,,
782,58970.6,,
781.6,57711.8,,
781.2,58505.9,,
780.8,57576.5,,
780.4,58241.2,,
780,58879.4,,
779.6,58779.4,,
779.2,58917.6,,
778.8,58470.6,,
778.4,58664.7,,
778,58385.3,,
777.6,58758.8,,
777.2,58305.9,,
776.8,58867.6,,
776.4,58950,,
776,59002.9,,
775.6,58726.5,,
775.2,58444.1,,
774.8,58673.5,,
774.4,58626.5,,
774,58367.6,,
773.6,58400,,
773.2,58702.9,,
772.8,58100,,
772.4,59388.2,,
772,58944.1,,
771.6,59158.8,,
771.2,59352.9,,
770.8,58885.3,,
770.4,58682.4,,
770,58852.9,,
769.6,59438.2,,
769.2,59008.8,,
768.8,58867.6,,
768.4,59150,,
768,59367.6,,
767.6,59311.8,,
767.2,59297.1,,
766.8,59423.5,,
766.4,59605.9,,
766,60314.7,,
765.6,59132.4,,
765.2,59541.2,,
764.8,60082.4,,
764.4,59350,,
764,59779.4,,
763.6,60826.5,,
763.2,59835.3,,
762.8,59929.4,,
762.4,60170.6,,
762,59817.6,,
761.6,60605.9,,
761.2,59138.2,,
760.8,60441.2,,
760.4,59655.9,,
760,60305.9,,
759.6,59882.4,,
759.2,59832.4,,
758.8,60200,,
758.4,60176.5,,
758,60329.4,,
757.6,59826.5,,
757.2,60711.8,,
756.8,60502.9,,
756.4,59300,,
756,60205.9,,
755.6,60350,,
755.2,60964.7,,
754.8,60726.5,,
754.4,59897.1,,
754,60744.1,,
753.6,59511.8,,
753.2,60420.6,,
752.8,60473.5,,
752.4,61552.9,,
752,60832.4,,
751.6,60564.7,,
751.2,60223.5,,
750.8,60070.6,,
750.4,60644.1,,
750,60091.2,,
749.6,60523.5,,
749.2,60829.4,,
748.8,60405.9,,
748.4,60782.4,,
748,60914.7,,
747.6,61002.9,,
747.2,60788.2,,
746.8,60376.5,,
746.4,61073.5,,
746,60891.2,,
745.6,60750,,
745.2,61394.1,,
744.8,60294.1,,
744.4,61082.4,,
744,60897.1,,
743.6,61117.6,,
743.2,61000,,
742.8,60382.4,,
742.4,60950,,
742,61955.9,,
741.6,61835.3,,
741.2,62164.7,,
740.8,61544.1,,
740.4,61564.7,,
740,62285.3,,
739.6,61505.9,,
739.2,61252.9,,
738.8,61117.6,,
738.4,61508.8,,
738,62223.5,,
737.6,61711.8,,
737.2,61385.3,,
736.8,61594.1,,
736.4,61341.2,,
736,61973.5,,
735.6,61720.6,,
735.2,61767.6,,
734.8,61523.5,,
734.4,61817.6,,
734,62094.1,,
733.6,61876.5,,
733.2,62094.1,,
732.8,61735.3,,
732.4,61591.2,,
732,62117.6,,
731.6,62129.4,,
731.2,62544.1,,
730.8,61555.9,,
730.4,61255.9,,
730,62026.5,,
729.6,61026.5,,
729.2,62600,,
728.8,61770.6,,
728.4,62223.5,,
728,62079.4,,
727.6,62035.3,,
727.2,62861.8,,
726.8,62197.1,,
726.4,62526.5,,
726,62326.5,,
725.6,62464.7,,
725.2,62688.2,,
724.8,63173.5,,
724.4,62264.7,,
724,62802.9,,
723.6,62455.9,,
723.2,63052.9,,
722.8,62597.1,,
722.4,62373.5,,
722,62435.3,,
721.6,63052.9,,
721.2,62776.5,,
720.8,62964.7,,
720.4,63141.2,,
720,63461.8,,
719.6,62732.4,,
719.2,62870.6,,
718.8,63308.8,,
718.4,63332.4,,
718,64038.2,,
717.6,64061.8,,
717.2,63291.2,,
716.8,63938.2,,
716.4,63535.3,,
716,63858.8,,
715.6,63444.1,,
715.2,63611.8,,
714.8,63132.4,,
714.4,63776.5,,
714,63350,,
713.6,63950,,
713.2,63897.1,,
712.8,63561.8,,
712.4,63264.7,,
712,64100,,
711.6,64038.2,,
711.2,63352.9,,
710.8,64020.6,,
710.4,63811.8,,
710,63505.9,,
709.6,64214.7,,
709.2,64432.4,,
708.8,64208.8,,
708.4,64285.3,,
708,63770.6,,
707.6,64344.1,,
707.2,63402.9,,
706.8,63638.2,,
706.4,63008.8,,
706,63085.3,,
705.6,62488.2,,
705.2,63305.9,,
704.8,63541.2,,
704.4,63864.7,,
704,62647.1,,
703.6,62888.2,,
703.2,62558.8,,
702.8,62602.9,,
702.4,62644.1,,
702,62558.8,,
701.6,62488.2,,
701.2,62114.7,,
700.8,62158.8,,
700.4,61882.4,,
700,61320.6,,
699.6,62082.4,,
699.2,60961.8,,
698.8,61420.6,,
698.4,61161.8,,
698,60970.6,,
697.6,60647.1,,
697.2,60497.1,,
696.8,61452.9,,
696.4,60661.8,,
696,60111.8,,
695.6,59561.8,,
695.2,59608.8,,
694.8,60888.2,,
694.4,60420.6,,
694,60755.9,,
693.6,60591.2,,
693.2,61035.3,,
692.8,61314.7,,
692.4,61102.9,,
692,62005.9,,
691.6,62470.6,,
691.2,64279.4,,
690.8,65870.6,,
690.4,70602.9,,
690,79773.5,,
689.6,91067.6,,
689.2,103253,,
688.8,106794,,
688.4,104800,,
688,92723.5,,
687.6,80541.2,,
687.2,71438.2,,
686.8,66285.3,,
686.4,63391.2,,
686,62700,,
685.6,61950,,
685.2,61385.3,,
684.8,60867.6,,
684.4,61347.1,,
684,61585.3,,
683.6,61238.2,,
683.2,61523.5,,
682.8,60882.4,,
682.4,60558.8,,
682,60535.3,,
681.6,60382.4,,
681.2,60852.9,,
680.8,60767.6,,
680.4,60494.1,,
680,60511.8,,
679.6,61085.3,,
679.2,61420.6,,
678.8,60852.9,,
678.4,61723.5,,
678,61126.5,,
677.6,61232.4,,
677.2,61023.5,,
676.8,60691.2,,
676.4,60929.4,,
676,61070.6,,
675.6,61735.3,,
675.2,61238.2,,
674.8,61147.1,,
674.4,61173.5,,
674,61205.9,,
673.6,60479.4,,
673.2,61644.1,,
672.8,60823.5,,
672.4,61026.5,,
672,60947.1,,
671.6,61738.2,,
671.2,61173.5,,
670.8,62000,,
670.4,60526.5,,
670,61423.5,,
669.6,61297.1,,
669.2,61361.8,,
668.8,61447.1,,
668.4,61838.2,,
668,61364.7,,
667.6,61170.6,,
667.2,60770.6,,
666.8,61308.8,,
666.4,61902.9,,
666,61514.7,,
665.6,61947.1,,
665.2,61738.2,,
664.8,62014.7,,
664.4,61973.5,,
664,62120.6,,
663.6,61723.5,,
663.2,61655.9,,
662.8,61432.4,,
662.4,62135.3,,
662,62241.2,,
661.6,61650,,
661.2,62223.5,,
660.8,61676.5,,
660.4,62000,,
660,61282.4,,
659.6,61455.9,,
659.2,61529.4,,
658.8,62467.6,,
658.4,61935.3,,
658,62202.9,,
657.6,62235.3,,
657.2,62385.3,,
656.8,62247.1,,
656.4,62232.4,,
656,61929.4,,
655.6,62600,,
655.2,62126.5,,
654.8,62438.2,,
654.4,62297.1,,
654,61805.9,,
653.6,62523.5,,
653.2,62055.9,,
652.8,62200,,
652.4,61985.3,,
652,62388.2,,
651.6,61814.7,,
651.2,62773.5,,
650.8,62088.2,,
650.4,62844.1,,
650,62805.9,,
649.6,62417.6,,
649.2,62447.1,,
648.8,63026.5,,
648.4,62208.8,,
648,62482.4,,
647.6,62391.2,,
647.2,62311.8,,
646.8,62847.1,,
646.4,62967.6,,
646,63288.2,,
645.6,62935.3,,
645.2,63370.6,,
644.8,62929.4,,
644.4,62308.8,,
644,62755.9,,
643.6,63141.2,,
643.2,63497.1,,
642.8,62620.6,,
642.4,63085.3,,
642,63067.6,,
641.6,63570.6,,
641.2,63720.6,,
640.8,62944.1,,
640.4,63605.9,,
640,63632.4,,
639.6,62841.2,,
639.2,63285.3,,
638.8,63167.6,,
638.4,63376.5,,
638,63844.1,,
637.6,63729.4,,
637.2,63211.8,,
636.8,64026.5,,
636.4,63429.4,,
636,63320.6,,
635.6,63376.5,,
635.2,63044.1,,
634.8,62958.8,,
634.4,63185.3,,
634,62864.7,,
633.6,63814.7,,
633.2,62708.8,,
632.8,62708.8,,
632.4,62985.3,,
632,63108.8,,
631.6,63302.9,,
631.2,63067.6,,
630.8,63508.8,,
630.4,63052.9,,
630,63567.6,,
629.6,62202.9,,
629.2,63285.3,,
628.8,62485.3,,
628.4,63970.6,,
628,62917.6,,
627.6,63152.9,,
627.2,63432.4,,
626.8,63223.5,,
626.4,64458.8,,
626,64629.4,,
625.6,64252.9,,
625.2,63570.6,,
624.8,63670.6,,
624.4,63147.1,,
624,62841.2,,
623.6,62573.5,,
623.2,63561.8,,
622.8,63226.5,,
622.4,63470.6,,
622,63100,,
621.6,64085.3,,
621.2,63658.8,,
620.8,63182.4,,
620.4,62938.2,,
620,63535.3,,
619.6,63955.9,,
619.2,63064.7,,
618.8,64497.1,,
618.4,63820.6,,
618,63914.7,,
617.6,63405.9,,
617.2,63444.1,,
616.8,64332.4,,
616.4,63429.4,,
616,63479.4,,
615.6,64194.1,,
615.2,63755.9,,
614.8,63679.4,,
614.4,64235.3,,
614,63497.1,,
613.6,63991.2,,
613.2,64364.7,,
612.8,64111.8,,
612.4,64279.4,,
612,64258.8,,
611.6,64776.5,,
611.2,64458.8,,
610.8,64452.9,,
610.4,64129.4,,
610,64188.2,,
609.6,63955.9,,
609.2,63941.2,,
608.8,64588.2,,
608.4,64911.8,,
608,63938.2,,
607.6,64844.1,,
607.2,64047.1,,
606.8,64217.6,,
606.4,64097.1,,
606,65052.9,,
605.6,64767.6,,
605.2,63297.1,,
604.8,64944.1,,
604.4,63905.9,,
604,64620.6,,
603.6,65288.2,,
603.2,63991.2,,
602.8,64429.4,,
602.4,64270.6,,
602,65294.1,,
601.6,65123.5,,
601.2,64841.2,,
600.8,65588.2,,
600.4,64870.6,,
600,64876.5,,
599.6,65105.9,,
599.2,65102.9,,
598.8,65038.2,,
598.4,65029.4,,
598,65408.8,,
597.6,65644.1,,
597.2,65388.2,,
596.8,64926.5,,
596.4,65226.5,,
596,65294.1,,
595.6,64932.4,,
595.2,65879.4,,
594.8,65738.2,,
594.4,65194.1,,
594,65494.1,,
593.6,66091.2,,
593.2,64447.1,,
592.8,65967.6,,
592.4,65641.2,,
592,64941.2,,
591.6,65802.9,,
591.2,65644.1,,
590.8,64602.9,,
590.4,65382.4,,
590,65197.1,,
589.6,65785.3,,
589.2,65441.2,,
588.8,64920.6,,
588.4,65261.8,,
588,64320.6,,
587.6,65476.5,,
587.2,65935.3,,
586.8,65541.2,,
586.4,65702.9,,
586,65205.9,,
585.6,65041.2,,
585.2,66461.8,,
584.8,64817.6,,
584.4,65367.6,,
584,66529.4,,
583.6,65347.1,,
583.2,66008.8,,
582.8,66408.8,,
582.4,65911.8,,
582,66038.2,,
581.6,65655.9,,
581.2,65923.5,,
580.8,65647.1,,
580.4,65370.6,,
580,66297.1,,
579.6,65897.1,,
579.2,65747.1,,
578.8,66364.7,,
578.4,65035.3,,
578,65882.4,,
577.6,65805.9,,
577.2,65900,,
576.8,65291.2,,
576.4,66947.1,,
576,66023.5,,
575.6,66197.1,,
575.2,66320.6,,
574.8,66705.9,,
574.4,66014.7,,
574,66455.9,,
573.6,67241.2,,
573.2,66570.6,,
572.8,66964.7,,
572.4,65488.2,,
572,67335.3,,
571.6,66238.2,,
571.2,66505.9,,
570.8,65717.6,,
570.4,66082.4,,
570,66129.4,,
569.6,66567.6,,
569.2,66447.1,,
568.8,66364.7,,
568.4,67026.5,,
568,66029.4,,
567.6,65232.4,,
567.2,65200,,
566.8,65555.9,,
566.4,65650,,
566,65447.1,,
565.6,65150,,
565.2,64488.2,,
564.8,65364.7,,
564.4,65350,,
564,65388.2,,
563.6,64808.8,,
563.2,65091.2,,
562.8,65211.8,,
562.4,65164.7,,
562,66082.4,,
561.6,65114.7,,
561.2,65873.5,,
560.8,65232.4,,
560.4,65700,,
560,64967.6,,
559.6,65361.8,,
559.2,65402.9,,
558.8,65811.8,,
558.4,65252.9,,
558,65020.6,,
557.6,65438.2,,
557.2,66605.9,,
556.8,65782.4,,
556.4,66497.1,,
556,65976.5,,
555.6,66170.6,,
555.2,65538.2,,
554.8,66132.4,,
554.4,65176.5,,
554,65244.1,,
553.6,66694.1,,
553.2,65079.4,,
552.8,66588.2,,
552.4,66191.2,,
552,66108.8,,
551.6,65708.8,,
551.2,65397.1,,
550.8,66526.5,,
550.4,65564.7,,
550,66070.6,,
549.6,65676.5,,
549.2,65438.2,,
548.8,66150,,
548.4,65976.5,,
548,66185.3,,
547.6,66120.6,,
547.2,66785.3,,
546.8,66700,,
546.4,65444.1,,
546,66311.8,,
545.6,65929.4,,
545.2,66029.4,,
544.8,65123.5,,
544.4,64155.9,,
544,63305.9,,
543.6,63017.6,,
543.2,62497.1,,
542.8,61732.4,,
542.4,61482.4,,
542,61017.6,,
541.6,61064.7,,
541.2,61376.5,,
540.8,59702.9,,
540.4,59847.1,,
540,59994.1,,
539.6,59429.4,,
539.2,59147.1,,
538.8,58585.3,,
538.4,59179.4,,
538,59161.8,,
537.6,58864.7,,
537.2,59908.8,,
536.8,58814.7,,
536.4,59405.9,,
536,58944.1,,
535.6,59850,,
535.2,60985.3,,
534.8,61423.5,,
534.4,63638.2,,
534,69861.8,,
533.6,78352.9,,
533.2,93008.8,,
532.8,105144,,
532.4,112038,,
532,105000,,
531.6,91300,,
531.2,78897.1,,
530.8,69691.2,,
530.4,66082.4,,
530,62594.1,,
529.6,60735.3,,
529.2,60061.8,,
528.8,59747.1,,
528.4,59873.5,,
528,59297.1,,
527.6,59644.1,,
527.2,58638.2,,
526.8,58997.1,,
526.4,58485.3,,
526,58814.7,,
525.6,59005.9,,
525.2,59397.1,,
524.8,58650,,
524.4,58617.6,,
524,58617.6,,
523.6,58288.2,,
523.2,59026.5,,
522.8,58261.8,,
522.4,58829.4,,
522,57902.9,,
521.6,58888.2,,
521.2,58658.8,,
520.8,59002.9,,
520.4,58826.5,,
520,58538.2,,
519.6,58026.5,,
519.2,59226.5,,
518.8,59732.4,,
518.4,59005.9,,
518,59479.4,,
517.6,59514.7,,
517.2,59205.9,,
516.8,58488.2,,
516.4,59250,,
516,59291.2,,
515.6,58629.4,,
515.2,58705.9,,
514.8,58864.7,,
514.4,59320.6,,
514,58291.2,,
513.6,59367.6,,
513.2,59279.4,,
512.8,59335.3,,
512.4,58614.7,,
512,58650,,
511.6,59579.4,,
511.2,58100,,
510.8,59535.3,,
510.4,59235.3,,
510,59858.8,,
509.6,58814.7,,
509.2,59755.9,,
508.8,59308.8,,
508.4,59432.4,,
508,59947.1,,
507.6,59561.8,,
507.2,59797.1,,
506.8,58652.9,,
506.4,59458.8,,
506,59667.6,,
505.6,59585.3,,
505.2,59067.6,,
504.8,59564.7,,
504.4,59111.8,,
504,59655.9,,
503.6,59644.1,,
503.2,59332.4,,
502.8,59752.9,,
502.4,60535.3,,
502,60517.6,,
501.6,60391.2,,
501.2,59282.4,,
500.8,60697.1,,
500.4,60132.4,,
500,60229.4,,
499.6,59723.5,,
499.2,60073.5,,
498.8,60185.3,,
498.4,60741.2,,
498,60614.7,,
497.6,60067.6,,
497.2,59879.4,,
496.8,60247.1,,
496.4,59970.6,,
496,60691.2,,
495.6,60397.1,,
495.2,60320.6,,
494.8,61035.3,,
494.4,60332.4,,
494,60726.5,,
493.6,59388.2,,
493.2,60517.6,,
492.8,59735.3,,
492.4,60338.2,,
492,60741.2,,
491.6,60455.9,,
491.2,60494.1,,
490.8,60758.8,,
490.4,60720.6,,
490,60441.2,,
489.6,60600,,
489.2,60176.5,,
488.8,61479.4,,
488.4,60394.1,,
488,61667.6,,
487.6,60473.5,,
487.2,61255.9,,
486.8,60844.1,,
486.4,61085.3,,
486,61223.5,,
485.6,60617.6,,
485.2,61470.6,,
484.8,60932.4,,
484.4,60535.3,,
484,61605.9,,
483.6,60591.2,,
483.2,61520.6,,
482.8,60261.8,,
482.4,61776.5,,
482,61694.1,,
481.6,61564.7,,
481.2,61026.5,,
480.8,61917.6,,
480.4,61435.3,,
480,61250,,
479.6,61491.2,,
479.2,61176.5,,
478.8,60747.1,,
478.4,61317.6,,
478,61938.2,,
477.6,61914.7,,
477.2,61211.8,,
476.8,61547.1,,
476.4,61655.9,,
476,62611.8,,
475.6,61476.5,,
475.2,61191.2,,
474.8,61782.4,,
474.4,61914.7,,
474,61702.9,,
473.6,61535.3,,
473.2,61505.9,,
472.8,61829.4,,
472.4,61202.9,,
472,61405.9,,
471.6,61497.1,,
471.2,61567.6,,
470.8,62117.6,,
470.4,61614.7,,
470,61308.8,,
469.6,62055.9,,
469.2,62220.6,,
468.8,62429.4,,
468.4,62882.4,,
468,62373.5,,
467.6,62194.1,,
467.2,62505.9,,
466.8,62035.3,,
466.4,62552.9,,
466,62094.1,,
465.6,61708.8,,
465.2,62605.9,,
464.8,61802.9,,
464.4,62332.4,,
464,62244.1,,
463.6,62529.4,,
463.2,62044.1,,
462.8,63005.9,,
462.4,62605.9,,
462,62311.8,,
461.6,62947.1,,
461.2,62617.6,,
460.8,62914.7,,
460.4,62900,,
460,62591.2,,
459.6,62261.8,,
459.2,62529.4,,
458.8,62426.5,,
458.4,61664.7,,
458,63158.8,,
457.6,62650,,
457.2,62958.8,,
456.8,61905.9,,
456.4,62455.9,,
456,63494.1,,
455.6,62529.4,,
455.2,62655.9,,
454.8,62723.5,,
454.4,62500,,
454,63361.8,,
453.6,62544.1,,
453.2,62711.8,,
452.8,62150,,
452.4,62270.6,,
452,63405.9,,
451.6,62691.2,,
451.2,62961.8,,
450.8,62800,,
450.4,63073.5,,
450,62750,,
449.6,63352.9,,
449.2,62785.3,,
448.8,62900,,
448.4,62897.1,,
448,62944.1,,
447.6,62791.2,,
447.2,63076.5,,
446.8,64076.5,,
446.4,63255.9,,
446,63997.1,,
445.6,63326.5,,
445.2,63247.1,,
444.8,62976.5,,
444.4,63750,,
444,63011.8,,
443.6,64079.4,,
443.2,62900,,
442.8,62826.5,,
442.4,63714.7,,
442,63285.3,,
441.6,64273.5,,
441.2,63661.8,,
440.8,63002.9,,
440.4,63541.2,,
440,63547.1,,
439.6,62738.2,,
439.2,63550,,
438.8,63282.4,,
438.4,63120.6,,
438,63482.4,,
437.6,62767.6,,
437.2,63050,,
436.8,63744.1,,
436.4,63497.1,,
436,63417.6,,
435.6,63638.2,,
435.2,63532.4,,
434.8,63891.2,,
434.4,64405.9,,
434,62994.1,,
433.6,64505.9,,
433.2,63829.4,,
432.8,63523.5,,
432.4,63144.1,,
432,63500,,
431.6,62979.4,,
431.2,64547.1,,
430.8,63264.7,,
430.4,64308.8,,
430,63164.7,,
429.6,63714.7,,
429.2,64685.3,,
428.8,63779.4,,
428.4,64394.1,,
428,63535.3,,
427.6,63879.4,,
427.2,64002.9,,
426.8,63544.1,,
426.4,64761.8,,
426,64067.6,,
425.6,63702.9,,
425.2,63976.5,,
424.8,64191.2,,
424.4,63547.1,,
424,64182.4,,
423.6,64111.8,,
423.2,63297.1,,
422.8,63282.4,,
422.4,64179.4,,
422,63926.5,,
421.6,64232.4,,
421.2,64370.6,,
420.8,64044.1,,
420.4,63685.3,,
420,63467.6,,
419.6,63979.4,,
419.2,64067.6,,
418.8,64223.5,,
418.4,63379.4,,
418,63658.8,,
417.6,63885.3,,
417.2,63450,,
416.8,63547.1,,
416.4,63623.5,,
416,63667.6,,
415.6,64170.6,,
415.2,63052.9,,
414.8,63785.3,,
414.4,63344.1,,
414,63085.3,,
413.6,64070.6,,
413.2,63155.9,,
412.8,63314.7,,
412.4,64126.5,,
412,63223.5,,
411.6,62805.9,,
411.2,63282.4,,
410.8,63958.8,,
410.4,62658.8,,
410,64247.1,,
409.6,62820.6,,
409.2,63426.5,,
408.8,63923.5,,
408.4,62988.2,,
408,62435.3,,
407.6,62594.1,,
407.2,62805.9,,
406.8,63014.7,,
406.4,62358.8,,
406,62420.6,,
405.6,62888.2,,
405.2,63505.9,,
404.8,63579.4,,
404.4,63197.1,,
404,64117.6,,
403.6,64761.8,,
403.2,67126.5,,
402.8,68711.8,,
402.4,68673.5,,
402,67470.6,,
401.6,65847.1,,
401.2,64635.3,,
400.8,63841.2,,
400.4,65200,,
400,66826.5,,
399.6,67347.1,,
399.2,67179.4,,
398.8,65797.1,,
398.4,63741.2,,
398,63573.5,,
397.6,62111.8,,
397.2,62976.5,,
396.8,63179.4,,
396.4,62502.9,,
396,61932.4,,
395.6,61808.8,,
395.2,61664.7,,
394.8,62935.3,,
394.4,62529.4,,
394,61905.9,,
393.6,61814.7,,
393.2,62432.4,,
392.8,62829.4,,
392.4,62370.6,,
392,62226.5,,
391.6,62617.6,,
391.2,61844.1,,
390.8,61408.8,,
390.4,61570.6,,
390,61761.8,,
389.6,61497.1,,
389.2,60714.7,,
388.8,61558.8,,
388.4,61161.8,,
388,61620.6,,
387.6,60732.4,,
387.2,61344.1,,
386.8,61770.6,,
386.4,61332.4,,
386,61482.4,,
385.6,61738.2,,
385.2,61788.2,,
384.8,61344.1,,
384.4,60882.4,,
384,60782.4,,
383.6,60941.2,,
383.2,61191.2,,
382.8,60176.5,,
382.4,60614.7,,
382,61667.6,,
381.6,61335.3,,
381.2,62217.6,,
380.8,60797.1,,
380.4,61152.9,,
380,60711.8,,
379.6,61185.3,,
379.2,60320.6,,
378.8,61717.6,,
378.4,61061.8,,
378,61844.1,,
377.6,61355.9,,
377.2,60405.9,,
376.8,60697.1,,
376.4,61814.7,,
376,60847.1,,
375.6,61197.1,,
375.2,61114.7,,
374.8,61132.4,,
374.4,60770.6,,
374,60964.7,,
373.6,60952.9,,
373.2,60494.1,,
372.8,60514.7,,
372.4,59594.1,,
372,60473.5,,
371.6,60200,,
371.2,59208.8,,
370.8,59458.8,,
370.4,59650,,
370,59311.8,,
369.6,58800,,
369.2,59841.2,,
368.8,59167.6,,
368.4,58311.8,,
368,59041.2,,
367.6,58188.2,,
367.2,58523.5,,
366.8,57923.5,,
366.4,58458.8,,
366,57502.9,,
365.6,58173.5,,
365.2,57335.3,,
364.8,57626.5,,
364.4,57102.9,,
364,58176.5,,
363.6,57420.6,,
363.2,57091.2,,
362.8,57173.5,,
362.4,58167.6,,
362,58261.8,,
361.6,56447.1,,
361.2,57152.9,,
360.8,57644.1,,
360.4,56729.4,,
360,56844.1,,
359.6,57741.2,,
359.2,56720.6,,
358.8,56220.6,,
358.4,57850,,
358,57373.5,,
357.6,57679.4,,
357.2,57305.9,,
356.8,58132.4,,
356.4,59120.6,,
356,59188.2,,
355.6,60997.1,,
355.2,60191.2,,
354.8,61373.5,,
354.4,62444.1,,
354,63282.4,,
353.6,63544.1,,
353.2,64120.6,,
352.8,63064.7,,
352.4,62076.5,,
352,61158.8,,
351.6,59250,,
351.2,59176.5,,
350.8,57376.5,,
350.4,56526.5,,
350,55741.2,,
349.6,54435.3,,
349.2,54317.6,,
348.8,53358.8,,
348.4,52967.6,,
348,52247.1,,
347.6,51750,,
347.2,50894.1,,
346.8,50855.9,,
346.4,51041.2,,
346,49941.2,,
345.6,50138.2,,
345.2,49755.9,,
344.8,49788.2,,
344.4,49388.2,,
344,48970.6,,
343.6,48732.4,,
343.2,48473.5,,
342.8,48020.6,,
342.4,48723.5,,
342,48552.9,,
341.6,49011.8,,
341.2,49108.8,,
340.8,49132.4,,
340.4,49229.4,,
340,50011.8,,
339.6,49679.4,,
339.2,50200,,
338.8,51267.6,,
338.4,51308.8,,
338,53517.6,,
337.6,53511.8,,
337.2,54891.2,,
336.8,56679.4,,
336.4,58164.7,,
336,59611.8,,
335.6,60964.7,,
335.2,61655.9,,
334.8,61114.7,,
334.4,60370.6,,
334,59579.4,,
333.6,57050,,
333.2,55050,,
332.8,53382.4,,
332.4,52155.9,,
332,50308.8,,
331.6,50267.6,,
331.2,49005.9,,
330.8,48500,,
330.4,47164.7,,
330,47667.6,,
329.6,47082.4,,
329.2,46829.4,,
328.8,46858.8,,
328.4,46164.7,,
328,45832.4,,
327.6,45767.6,,
327.2,45458.8,,
326.8,45452.9,,
326.4,45835.3,,
326,45400,,
325.6,45264.7,,
325.2,45782.4,,
324.8,45361.8,,
324.4,44738.2,,
324,45650,,
323.6,44814.7,,
323.2,44670.6,,
322.8,45097.1,,
322.4,44714.7,,
322,44620.6,,
321.6,45144.1,,
321.2,44944.1,,
320.8,45238.2,,
320.4,45073.5,,
320,45391.2,,
319.6,45014.7,,
319.2,45600,,
318.8,45850,,
318.4,45120.6,,
318,45520.6,,
317.6,45391.2,,
317.2,45523.5,,
316.8,45797.1,,
316.4,45858.8,,
316,45097.1,,
315.6,46173.5,,
315.2,45917.6,,
314.8,46076.5,,
314.4,46523.5,,
314,46055.9,,
313.6,46444.1,,
313.2,46379.4,,
312.8,46158.8,,
312.4,46073.5,,
312,46244.1,,
311.6,46217.6,,
311.2,46638.2,,
310.8,46247.1,,
310.4,46300,,
310,46823.5,,
309.6,46814.7,,
309.2,46194.1,,
308.8,47485.3,,
308.4,46797.1,,
308,47247.1,,
307.6,47547.1,,
307.2,47029.4,,
306.8,47550,,
306.4,46964.7,,
306,47535.3,,
305.6,47405.9,,
305.2,47182.4,,
304.8,47217.6,,
304.4,47550,,
304,47608.8,,
303.6,47150,,
303.2,47214.7,,
302.8,46470.6,,
302.4,46370.6,,
302,45729.4,,
301.6,45432.4,,
301.2,45288.2,,
300.8,44708.8,,
300.4,44550,,
300,43182.4,,
299.6,44194.1,,
299.2,43276.5,,
298.8,43161.8,,
298.4,42217.6,,
298,41611.8,,
297.6,41573.5,,
297.2,40879.4,,
296.8,41111.8,,
296.4,40144.1,,
296,39776.5,,
295.6,39958.8,,
295.2,39767.6,,
294.8,40138.2,,
294.4,39600,,
294,40120.6,,
293.6,42173.5,,
293.2,43061.8,,
292.8,42967.6,,
292.4,40567.6,,
292,38561.8,,
291.6,37814.7,,
291.2,37114.7,,
290.8,37717.6,,
290.4,37732.4,,
290,38426.5,,
289.6,39600,,
289.2,40567.6,,
288.8,41626.5,,
288.4,42979.4,,
288,45941.2,,
287.6,50414.7,,
287.2,59520.6,,
286.8,69488.2,,
286.4,81605.9,,
286,100065,,
285.6,128062,,
285.2,147124,,
284.8,135650,,
284.4,98635.3,,
284,66941.2,,
283.6,48988.2,,
283.2,42297.1,,
282.8,39888.2,,
282.4,39438.2,,
282,38894.1,,
281.6,38441.2,,
281.2,38241.2,,
280.8,37711.8,,
280.4,37117.6,,
280,36697.1,,
279.6,36820.6,,
279.2,36723.5,,
278.8,36070.6,,
278.4,36747.1,,
278,36164.7,,
277.6,36126.5,,
277.2,36005.9,,
276.8,36164.7,,
276.4,36252.9,,
276,36129.4,,
275.6,36526.5,,
275.2,36123.5,,
274.8,36579.4,,
274.4,36535.3,,
274,35744.1,,
273.6,35932.4,,
273.2,36364.7,,
272.8,36482.4,,
272.4,36226.5,,
272,36300,,
271.6,36326.5,,
271.2,36455.9,,
270.8,36232.4,,
270.4,35835.3,,
270,36564.7,,
269.6,36461.8,,
269.2,36247.1,,
268.8,36485.3,,
268.4,36367.6,,
268,36473.5,,
267.6,36191.2,,
267.2,36402.9,,
266.8,36247.1,,
266.4,35855.9,,
266,36602.9,,
265.6,36373.5,,
265.2,35985.3,,
264.8,36379.4,,
264.4,36532.4,,
264,36185.3,,
263.6,36897.1,,
263.2,36617.6,,
262.8,36502.9,,
262.4,36564.7,,
262,36738.2,,
261.6,36500,,
261.2,36170.6,,
260.8,37197.1,,
260.4,36158.8,,
260,36570.6,,
259.6,37135.3,,
259.2,36661.8,,
258.8,37117.6,,
258.4,36455.9,,
258,36994.1,,
257.6,36467.6,,
257.2,36505.9,,
256.8,36744.1,,
256.4,36608.8,,
256,37100,,
255.6,37164.7,,
255.2,37526.5,,
254.8,37217.6,,
254.4,36829.4,,
254,37220.6,,
253.6,37417.6,,
253.2,36917.6,,
252.8,37002.9,,
252.4,36994.1,,
252,37050,,
251.6,37429.4,,
251.2,36758.8,,
250.8,37497.1,,
250.4,37029.4,,
250,36982.4,,
249.6,37120.6,,
249.2,37705.9,,
248.8,36923.5,,
248.4,37364.7,,
248,37264.7,,
247.6,37282.4,,
247.2,37276.5,,
246.8,37447.1,,
246.4,37138.2,,
246,36941.2,,
245.6,36882.4,,
245.2,37026.5,,
244.8,36897.1,,
244.4,37226.5,,
244,36814.7,,
243.6,36973.5,,
243.2,36517.6,,
242.8,36591.2,,
242.4,36479.4,,
242,36214.7,,
241.6,36282.4,,
241.2,36955.9,,
240.8,36908.8,,
240.4,36258.8,,
240,36270.6,,
239.6,36300,,
239.2,36300,,
238.8,36785.3,,
238.4,36579.4,,
238,36691.2,,
237.6,36352.9,,
237.2,36517.6,,
236.8,37497.1,,
236.4,37985.3,,
236,36991.2,,
235.6,38067.6,,
235.2,38305.9,,
234.8,38732.4,,
234.4,39652.9,,
234,40873.5,,
233.6,41517.6,,
233.2,41664.7,,
232.8,42058.8,,
232.4,41267.6,,
232,40611.8,,
231.6,39176.5,,
231.2,38861.8,,
230.8,38379.4,,
230.4,37932.4,,
230,37491.2,,
229.6,37620.6,,
229.2,36838.2,,
228.8,38044.1,,
228.4,36264.7,,
228,37329.4,,
227.6,37591.2,,
227.2,37476.5,,
226.8,37388.2,,
226.4,36923.5,,
226,36770.6,,
225.6,36964.7,,
225.2,36811.8,,
224.8,36544.1,,
224.4,36950,,
224,37497.1,,
223.6,36994.1,,
223.2,37047.1,,
222.8,36541.2,,
222.4,37023.5,,
222,37205.9,,
221.6,36967.6,,
221.2,36938.2,,
220.8,37429.4,,
220.4,36582.4,,
220,37158.8,,
219.6,37297.1,,
219.2,37264.7,,
218.8,36829.4,,
218.4,37035.3,,
218,37138.2,,
217.6,36858.8,,
217.2,36920.6,,
216.8,36602.9,,
216.4,36823.5,,
216,37005.9,,
215.6,37297.1,,
215.2,36779.4,,
214.8,37473.5,,
214.4,37838.2,,
214,37338.2,,
213.6,37355.9,,
213.2,38044.1,,
212.8,36955.9,,
212.4,37308.8,,
212,37623.5,,
211.6,37479.4,,
211.2,37094.1,,
210.8,37361.8,,
210.4,36700,,
210,37382.4,,
209.6,37297.1,,
209.2,36829.4,,
208.8,36667.6,,
208.4,37435.3,,
208,37526.5,,
207.6,37464.7,,
207.2,37505.9,,
206.8,37635.3,,
206.4,37502.9,,
206,36735.3,,
205.6,37294.1,,
205.2,37638.2,,
204.8,37079.4,,
204.4,37729.4,,
204,37576.5,,
203.6,37329.4,,
203.2,37723.5,,
202.8,37697.1,,
202.4,37288.2,,
202,37705.9,,
201.6,37347.1,,
201.2,36873.5,,
200.8,37823.5,,
200.4,37700,,
200,37779.4,,
199.6,37820.6,,
199.2,37300,,
198.8,37602.9,,
198.4,37814.7,,
198,37800,,
197.6,38135.3,,
197.2,37741.2,,
196.8,37473.5,,
196.4,37438.2,,
196,37505.9,,
195.6,38102.9,,
195.2,37755.9,,
194.8,37850,,
194.4,38005.9,,
194,37705.9,,
193.6,37320.6,,
193.2,38379.4,,
192.8,37902.9,,
192.4,38032.4,,
192,38108.8,,
191.6,37341.2,,
191.2,37750,,
190.8,38279.4,,
190.4,38311.8,,
190,37858.8,,
189.6,38497.1,,
189.2,38047.1,,
188.8,37452.9,,
188.4,37485.3,,
188,37588.2,,
187.6,37673.5,,
187.2,37620.6,,
186.8,37473.5,,
186.4,38067.6,,
186,38011.8,,
185.6,37335.3,,
185.2,37358.8,,
184.8,38255.9,,
184.4,37861.8,,
184,37661.8,,
183.6,37473.5,,
183.2,37729.4,,
182.8,37964.7,,
182.4,37194.1,,
182,36870.6,,
181.6,37044.1,,
181.2,36917.6,,
180.8,37200,,
180.4,36997.1,,
180,37567.6,,
179.6,37088.2,,
179.2,37017.6,,
178.8,36767.6,,
178.4,36717.6,,
178,36873.5,,
177.6,37158.8,,
177.2,36688.2,,
176.8,36585.3,,
176.4,36435.3,,
176,36229.4,,
175.6,37129.4,,
175.2,37297.1,,
174.8,36638.2,,
174.4,36655.9,,
174,37767.6,,
173.6,36385.3,,
173.2,36852.9,,
172.8,36629.4,,
172.4,37182.4,,
172,37647.1,,
171.6,37779.4,,
171.2,38779.4,,
170.8,40188.2,,
170.4,42811.8,,
170,43958.8,,
169.6,45926.5,,
169.2,46188.2,,
168.8,44741.2,,
168.4,42767.6,,
168,39944.1,,
167.6,38029.4,,
167.2,37982.4,,
166.8,37017.6,,
166.4,36726.5,,
166,36926.5,,
165.6,37188.2,,
165.2,36564.7,,
164.8,36850,,
164.4,36267.6,,
164,36755.9,,
163.6,36964.7,,
163.2,36811.8,,
162.8,36864.7,,
162.4,36847.1,,
162,36276.5,,
161.6,36138.2,,
161.2,36094.1,,
160.8,36188.2,,
160.4,36470.6,,
160,35997.1,,
159.6,36244.1,,
159.2,36102.9,,
158.8,36938.2,,
158.4,36064.7,,
158,35708.8,,
157.6,36026.5,,
157.2,36035.3,,
156.8,36529.4,,
156.4,36673.5,,
156,36255.9,,
155.6,37097.1,,
155.2,37461.8,,
154.8,38282.4,,
154.4,38102.9,,
154,38647.1,,
153.6,39679.4,,
153.2,38585.3,,
152.8,38679.4,,
152.4,37852.9,,
152,36935.3,,
151.6,36655.9,,
151.2,36164.7,,
150.8,36444.1,,
150.4,35929.4,,
150,35500,,
149.6,35461.8,,
149.2,35864.7,,
148.8,36191.2,,
148.4,35973.5,,
148,35479.4,,
147.6,35717.6,,
147.2,35088.2,,
146.8,35826.5,,
146.4,35402.9,,
146,35679.4,,
145.6,35723.5,,
145.2,35044.1,,
144.8,35750,,
144.4,35885.3,,
144,35270.6,,
143.6,35447.1,,
143.2,35314.7,,
142.8,35450,,
142.4,35347.1,,
142,34982.4,,
141.6,35820.6,,
141.2,35394.1,,
140.8,35244.1,,
140.4,34850,,
140,35288.2,,
139.6,35605.9,,
139.2,34870.6,,
138.8,35423.5,,
138.4,34879.4,,
138,34897.1,,
137.6,35208.8,,
137.2,34832.4,,
136.8,34579.4,,
136.4,34470.6,,
136,34614.7,,
135.6,34705.9,,
135.2,34935.3,,
134.8,34297.1,,
134.4,34026.5,,
134,34900,,
133.6,34152.9,,
133.2,34614.7,,
132.8,34088.2,,
132.4,34847.1,,
132,34611.8,,
131.6,34055.9,,
131.2,34167.6,,
130.8,34167.6,,
130.4,34314.7,,
130,34688.2,,
129.6,33626.5,,
129.2,33797.1,,
128.8,33544.1,,
128.4,33444.1,,
128,33579.4,,
127.6,33641.2,,
127.2,32591.2,,
126.8,33770.6,,
126.4,32644.1,,
126,32935.3,,
125.6,33682.4,,
125.2,33108.8,,
124.8,33026.5,,
124.4,32911.8,,
124,33244.1,,
123.6,32558.8,,
123.2,32594.1,,
122.8,32255.9,,
122.4,32679.4,,
122,32214.7,,
121.6,32847.1,,
121.2,32444.1,,
120.8,31976.5,,
120.4,32173.5,,
120,32088.2,,
119.6,32044.1,,
119.2,31970.6,,
118.8,31826.5,,
118.4,31550,,
118,31720.6,,
117.6,31538.2,,
117.2,31358.8,,
116.8,31194.1,,
116.4,31705.9,,
116,31050,,
115.6,31570.6,,
115.2,31723.5,,
114.8,31602.9,,
114.4,30994.1,,
114,31911.8,,
113.6,31770.6,,
113.2,31576.5,,
112.8,32185.3,,
112.4,32426.5,,
112,32047.1,,
111.6,32520.6,,
111.2,31858.8,,
110.8,32508.8,,
110.4,31679.4,,
110,31847.1,,
109.6,32185.3,,
109.2,32120.6,,
108.8,31997.1,,
108.4,32391.2,,
108,31994.1,,
107.6,31891.2,,
107.2,32191.2,,
106.8,30944.1,,
106.4,30802.9,,
106,30835.3,,
105.6,30658.8,,
105.2,30420.6,,
104.8,30000,,
104.4,29985.3,,
104,29555.9,,
103.6,29779.4,,
103.2,30791.2,,
102.8,31108.8,,
102.4,30923.5,,
102,29970.6,,
101.6,27914.7,,
101.2,26047.1,,
100.8,25082.4,,
100.4,24691.2,,
100,24364.7,,
99.6,23438.2,,
99.2,23302.9,,
98.8,22452.9,,
98.4,21850,,
98,21652.9,,
97.6,21138.2,,
97.2,20102.9,,
96.8,19241.2,,
96.4,18841.2,,
96,18238.2,,
95.6,17670.6,,
95.2,17429.4,,
94.8,17182.4,,
94.4,16135.3,,
94,16679.4,,
93.6,16164.7,,
93.2,16014.7,,
92.8,15582.4,,
92.4,15229.4,,
92,15317.6,,
91.6,15620.6,,
91.2,15411.8,,
90.8,16564.7,,
90.4,17144.1,,
90,17917.6,,
89.6,19270.6,,
89.2,22011.8,,
88.8,28267.6,,
88.4,40864.7,,
88,57864.7,,
87.6,64732.4,,
87.2,51594.1,,
86.8,34191.2,,
86.4,23673.5,,
86,20844.1,,
85.6,23058.8,,
85.2,29564.7,,
84.8,42638.2,,
84.4,63720.6,,
84,76500,,
83.6,64491.2,,
83.2,39202.9,,
82.8,21173.5,,
82.4,14373.5,,
82,11914.7,,
81.6,10976.5,,
81.2,9905.88,,
80.8,9670.59,,
80.4,9370.59,,
80,8947.06,,
79.6,8552.94,,
79.2,8232.35,,
78.8,8352.94,,
78.4,8138.24,,
78,8082.35,,
77.6,8091.18,,
77.2,8076.47,,
76.8,7923.53,,
76.4,7888.24,,
76,7770.59,,
75.6,7664.71,,
75.2,7652.94,,
74.8,7820.59,,
74.4,7626.47,,
74,7561.76,,
73.6,7261.76,,
73.2,7294.12,,
72.8,7144.12,,
72.4,7464.71,,
72,7038.24,,
71.6,6891.18,,
71.2,6852.94,,
70.8,6729.41,,
70.4,6500,,
70,6691.18,,
69.6,6402.94,,
69.2,6385.29,,
68.8,6382.35,,
68.4,6273.53,,
68,6232.35,,
67.6,6094.12,,
67.2,6147.06,,
66.8,6188.24,,
66.4,5891.18,,
66,6138.24,,
65.6,6058.82,,
65.2,6000,,
64.8,5888.24,,
64.4,5723.53,,
64,5920.59,,
63.6,5847.06,,
63.2,5735.29,,
62.8,5947.06,,
62.4,6094.12,,
62,5935.29,,
61.6,6123.53,,
61.2,6211.76,,
60.8,5976.47,,
60.4,6647.06,,
60,6441.18,,
59.6,6858.82,,
59.2,7035.29,,
58.8,7026.47,,
58.4,7005.88,,
58,7026.47,,
57.6,7282.35,,
57.2,7294.12,,
56.8,7473.53,,
56.4,7035.29,,
56,7164.71,,
55.6,6811.76,,
55.2,6679.41,,
54.8,6579.41,,
54.4,6091.18,,
54,6082.35,,
53.6,5852.94,,
53.2,5929.41,,
52.8,5797.06,,
52.4,5608.82,,
52,5670.59,,
51.6,5332.35,,
51.2,5491.18,,
50.8,5476.47,,
50.4,5232.35,,
50,5079.41,,
49.6,4964.71,,
49.2,5111.76,,
48.8,4982.35,,
48.4,5067.65,,
48,4744.12,,
47.6,4917.65,,
47.2,5035.29,,
46.8,4841.18,,
46.4,4870.59,,
46,4585.29,,
45.6,4735.29,,
45.2,4814.71,,
44.8,4935.29,,
44.4,4600,,
44,4605.88,,
43.6,4758.82,,
43.2,4717.65,,
42.8,4476.47,,
42.4,4564.71,,
42,4544.12,,
41.6,4355.88,,
41.2,4523.53,,
40.8,4547.06,,
40.4,4711.76,,
40,4467.65,,
39.6,4385.29,,
39.2,4708.82,,
38.8,4620.59,,
38.4,4738.24,,
38,4735.29,,
37.6,5138.24,,
37.2,5008.82,,
36.8,5076.47,,
36.4,5167.65,,
36,5441.18,,
35.6,5414.71,,
35.2,5455.88,,
34.8,5426.47,,
34.4,5911.76,,
34,5497.06,,
33.6,5650,,
33.2,5426.47,,
32.8,5464.71,,
32.4,5102.94,,
32,5091.18,,
31.6,4832.35,,
31.2,4773.53,,
30.8,4714.71,,
30.4,4767.65,,
30,4582.35,,
29.6,4852.94,,
29.2,5047.06,,
28.8,4744.12,,
28.4,4838.24,,
28,4788.24,,
27.6,4820.59,,
27.2,4752.94,,
26.8,4841.18,,
26.4,4976.47,,
26,5011.76,,
25.6,5094.12,,
25.2,4647.06,,
24.8,4705.88,,
24.4,4458.82,,
24,4388.24,,
23.6,3958.82,,
23.2,4050,,
22.8,3917.65,,
22.4,3667.65,,
22,3488.24,,
21.6,3579.41,,
21.2,3726.47,,
20.8,3764.71,,
20.4,3773.53,,
20,3791.18,,
19.6,3876.47,,
19.2,3964.71,,
18.8,3844.12,,
18.4,3794.12,,
18,3929.41,,
17.6,3567.65,,
17.2,3667.65,,
16.8,3570.59,,
16.4,3473.53,,
16,3194.12,,
15.6,3417.65,,
15.2,3247.06,,
14.8,3044.12,,
14.4,2773.53,,
14,2938.24,,
13.6,2779.41,,
13.2,2770.59,,
12.8,2623.53,,
12.4,2532.35,,
12,2679.41,,
11.6,2732.35,,
11.2,2773.53,,
10.8,2761.76,,
10.4,2755.88,,
10,2694.12,,
9.6,2432.35,,
9.2,2391.18,,
8.8,2517.65,,
8.4,2767.65,,
8,3570.59,,
7.6,4367.65,,
7.2,5035.29,,
6.8,5905.88,,
6.4,5979.41,,
6,6091.18,,
5.6,5694.12,,
5.2,5326.47,,
4.8,5352.94,,
4.4,6005.88,,
4,6076.47,,
3.6,6297.06,,
3.2,6055.88,,
2.8,5567.65,,
2.4,4373.53,,
2,3058.82,,
