,,,,,
,,,,,
Characteristic Energy eV,1486.6,Acquisition Time s,6,,
BE_S 2p 3,CPS_S 2p 3,S 2p_1_S 2p 3,S 2p_2_S 2p 3,Background_S 2p 3,Envelope_S 2p 3
176.4,8802.33,8802.81,8802.74,8802.33,8803.22
176.275,8775.83,8776.33,8776.27,8775.83,8776.77
176.15,8730.33,8730.85,8730.8,8730.33,8731.32
176.025,8720.67,8721.22,8721.16,8720.67,8721.71
175.9,8714.5,8715.09,8715.02,8714.5,8715.61
175.775,8786.17,8786.79,8786.74,8786.17,8787.36
175.65,8785.17,8785.82,8785.78,8785.17,8786.44
175.525,8793.67,8794.36,8794.31,8793.67,8795
175.4,8783.33,8784.07,8784.03,8783.33,8784.76
175.275,8763.17,8763.96,8763.91,8763.17,8764.7
175.15,8797,8797.84,8797.81,8797,8798.65
175.025,8861.83,8862.73,8862.71,8861.83,8863.6
174.9,8740.83,8741.79,8741.78,8740.83,8742.73
174.775,8756.67,8757.67,8757.7,8756.67,8758.7
174.65,8729.17,8730.25,8730.29,8729.17,8731.38
174.525,8745.83,8747.01,8747.06,8745.83,8748.24
174.4,8784.83,8786.1,8786.18,8784.83,8787.45
174.275,8742.67,8743.99,8744.15,8742.67,8745.48
174.15,8759,8760.43,8760.64,8759,8762.07
174.025,8787,8788.54,8788.81,8787,8790.36
173.9,8746.67,8748.33,8748.68,8746.67,8750.35
173.775,8718.17,8719.97,8720.42,8718.17,8722.23
173.65,8714.67,8716.63,8717.19,8714.67,8719.16
173.525,8798.67,8800.8,8801.51,8798.67,8803.65
173.4,8739.33,8741.67,8742.56,8739.33,8744.89
173.275,8784.17,8786.72,8787.85,8784.17,8790.4
173.15,8764,8766.81,8768.22,8764,8771.03
173.025,8715.33,8718.42,8720.22,8715.33,8723.31
172.9,8773.33,8776.75,8779.04,8773.33,8782.45
172.775,8771.33,8775.12,8778.06,8771.33,8781.85
172.65,8795,8799.22,8803.03,8795,8807.25
172.525,8789,8793.72,8798.72,8789,8803.44
172.4,8721.67,8726.97,8733.65,8721.67,8738.95
172.275,8816.33,8762.71,8771.78,8756.71,8777.77
172.15,8731.83,8763.56,8776.13,8756.76,8782.94
172.025,8778.33,8764.58,8782.3,8756.79,8790.09
171.9,8736.17,8765.79,8791.22,8756.83,8800.18
171.775,8831.33,8767.36,8804.27,8756.95,8814.68
171.65,8888.67,8769.38,8823.29,8757.18,8835.48
171.525,8873.33,8771.83,8850.48,8757.37,8864.93
171.4,8895.5,8774.96,8888.75,8757.61,8906.1
171.275,8914.33,8779.03,8941.02,8757.88,8962.17
171.15,9067.67,8784.68,9010.1,8758.4,9036.38
171.025,9141.33,8792.4,9097.31,8759.05,9130.66
170.9,9282.33,8803.25,9202.15,8759.94,9245.45
170.775,9327,8818.49,9320.97,8760.91,9378.56
170.65,9562,8840.59,9447.3,8762.27,9525.63
170.525,9675,8872.36,9571.02,8763.82,9679.55
170.4,9816,8917.89,9680.32,8765.61,9832.6
170.275,10055.7,8982.53,9763.45,8767.8,9978.19
170.15,10060,9071.67,9810.19,8770,10111.9
170.025,10118.8,9191.14,9814.92,8772.29,10233.8
169.9,10296.8,9345.6,9777.43,8774.88,10348.1
169.775,10381.5,9536.29,9702.78,8777.61,10461.5
169.65,10463.7,9759.8,9600.48,8780.48,10579.8
169.525,10696.2,10006.7,9482.59,8783.73,10705.6
169.4,10834.7,10260.5,9360.9,8787.22,10834.2
169.275,11107.3,10499.6,9245.78,8791.16,10954.2
169.15,11119.8,10699.4,9144.01,8795.12,11048.2
169.025,11166.3,10837.1,9059.5,8799.15,11097.5
168.9,11148.3,10896.1,8993.01,8803.14,11086
168.775,11055.5,10868.9,8943.13,8806.97,11005.1
168.65,10845.7,10759.5,8907.16,8810.44,10856.2
168.525,10570,10582,8882.06,8813.43,10650.7
168.4,10298.5,10358,8865.01,8815.95,10407.1
168.275,10065.3,10111.7,8853.66,8818.08,10147.3
168.15,9857,9866.04,8846.18,8819.84,9892.38
168.025,9682,9639.1,8841.26,8821.31,9659.05
167.9,9549.17,9442.58,8838.02,8822.54,9458.05
167.775,9353,9281.42,8835.72,8823.45,9293.7
167.65,9247.83,9155.55,8834.11,8824.17,9165.49
167.525,9154.67,9061.21,8832.92,8824.73,9069.41
167.4,9005,8992.77,8831.89,8825.03,8999.63
167.275,9037.83,8944.68,8831.2,8825.4,8950.48
167.15,8870.5,8911.19,8830.44,8825.47,8916.16
167.025,8964,8888.37,8830,8825.71,8892.66
166.9,8930.5,8872.7,8829.62,8825.89,8876.43
166.775,8980.83,8861.96,8829.42,8826.15,8865.23
166.65,8810.67,8854.21,8829.06,8826.18,8857.1
166.525,8939.67,8848.81,8828.93,8826.37,8851.37
166.4,8874.17,8844.77,8828.73,8826.45,8847.05
166.275,8939.33,8841.84,8828.68,8826.64,8843.88
166.15,8835.83,8839.44,8828.49,8826.66,8841.27
166.025,8828.5,8837.53,8828.32,8826.66,8839.19
165.9,8823.5,8836.01,8828.17,8826.67,8837.51
165.775,8828,8836.09,8829.36,8828,8837.46
165.65,8815.5,8822.57,8816.74,8815.5,8823.81
165.525,8815.17,8821.37,8816.3,8815.17,8822.51
165.4,8805,8810.49,8806.04,8805,8811.53
165.275,8824.67,8829.54,8825.62,8824.67,8830.5
165.15,8772.5,8776.85,8773.38,8772.5,8777.73
165.025,8779.17,8783.07,8779.98,8779.17,8783.88
164.9,8840.17,8843.68,8840.92,8840.17,8844.44
164.775,8754.67,8757.84,8755.36,8754.67,8758.54
164.65,8822,8824.88,8822.65,8822,8825.53
164.525,8805,8807.62,8805.62,8805,8808.24
164.4,8783.5,8785.89,8784.07,8783.5,8786.47
