,,,,,
,,,,,
Characteristic Energy eV,1486.6,Acquisition Time s,2,,
BE_O 1s 6,CPS_O 1s 6,O 1s_1_O 1s 6,O 1s_2_O 1s 6,Background_O 1s 6,Envelope_O 1s 6
537.9,10715,10724.6,10715.6,10715,10725.2
537.775,10468.5,10478.8,10469.1,10468.5,10479.5
537.65,10684.5,10695.3,10685.2,10684.5,10696
537.525,10606,10617.7,10606.7,10606,10618.4
537.4,10628,10640.6,10628.8,10628,10641.4
537.275,10705,10718.7,10705.8,10705,10719.5
537.15,10596.5,10611.4,10597.4,10596.5,10612.2
537.025,10751,10767.2,10751.9,10751,10768.1
536.9,10664.5,10682.1,10665.5,10664.5,10683.2
536.775,10791.5,10810.8,10792.6,10791.5,10811.9
536.65,10711,10732.2,10712.2,10711,10733.4
536.525,10653,10676.3,10654.3,10653,10677.6
536.4,10718,10743.8,10719.4,10718,10745.1
536.275,10722,10750.6,10723.4,10722,10752
536.15,10669.5,10701.3,10671.1,10669.5,10702.9
536.025,10861.5,10897.1,10863.2,10861.5,10898.8
535.9,10668.5,10708.4,10670.3,10668.5,10710.3
535.775,10821,10866.1,10823,10821,10868.1
535.65,10686.5,10737.6,10688.7,10686.5,10739.8
535.525,10761.5,10741,10685,10682.6,10743.4
535.4,10600,10749.8,10685.3,10682.6,10752.4
535.275,10623,10760.5,10685.5,10682.6,10763.4
535.15,10649.5,10773.7,10685.8,10682.6,10776.9
535.025,10775.5,10790.2,10686.1,10682.6,10793.8
534.9,10707,10811.4,10686.5,10682.6,10815.4
534.775,10697.5,10839.1,10687,10682.6,10843.5
534.65,10754.5,10876.2,10687.5,10682.6,10881.1
534.525,10821.5,10927.1,10688.2,10682.5,10932.7
534.4,10868,10998.7,10688.9,10682.5,11005
534.275,11096.5,11101.3,10689.7,10682.4,11108.6
534.15,11162,11250.7,10690.7,10682.3,11259.1
534.025,11488,11469.7,10691.9,10682.1,11479.4
533.9,11922.5,11789.6,10693.2,10681.8,11801
533.775,12232,12250.9,10694.9,10681.5,12264.4
533.65,12827.5,12901.6,10697.1,10681,12917.6
533.525,13811,13790.8,10699.8,10680.3,13810.2
533.4,15167,14959.7,10703.3,10679.3,14983.7
533.275,16335,16427.4,10708.2,10678.1,16457.5
533.15,18342,18174.6,10715.3,10676.3,18213.5
533.025,20066,20130.7,10725.9,10674.2,20182.4
532.9,22278.5,22168.4,10742.4,10671.7,22239.1
532.775,24315,24111.2,10768.5,10668.6,24211
532.65,25822,25756.4,10810,10665.2,25901.1
532.525,27054.5,26909.5,10875.1,10661.6,27123.1
532.4,27661,27423.1,10974.6,10657.8,27739.9
532.275,27802,27228.3,11120.9,10654,27695.2
532.15,27172,26350.9,11325.7,10650.3,27026.3
532.025,25728,24905.2,11596.3,10646.9,25854.6
531.9,24282.5,23068.7,11930.4,10643.9,24355.2
531.775,22730,21045.2,12311.4,10641.2,22715.4
531.65,21180,19027,12707.2,10638.8,21095.4
531.525,19578.5,17166.5,13072.3,10636.8,19601.9
531.4,18204.5,15560.7,13355.8,10635.2,18281.3
531.275,17148.5,14251.1,13512.8,10633.7,17130.2
531.15,16182.5,13234.2,13517.2,10632.5,16119
531.025,15229,12477.2,13368,10631.4,15213.7
530.9,14291.5,11932.8,13090,10630.6,14392.1
530.775,13657.5,11551.6,12726.5,10630,13648.2
530.65,13050.5,11289.4,12328.4,10629.4,12988.3
530.525,12383.5,11110.4,11941.9,10629,12423.3
530.4,12019.5,10987.9,11600.5,10628.7,11959.7
530.275,11570.5,10903.2,11321.5,10628.5,11596.3
530.15,11389,10843.5,11108.3,10628.3,11323.5
530.025,11287.5,10800.5,10954.2,10628.2,11126.5
529.9,10880.5,10768.8,10847.8,10628.1,10988.5
529.775,10720.5,10744.9,10776.9,10628.1,10893.7
529.65,10711.5,10726.3,10730.6,10628.1,10828.8
529.525,10771,10711.7,10700.5,10628.1,10784.1
529.4,10774.5,10699.9,10680.8,10628,10752.7
529.275,10520.5,10690.3,10667.7,10628,10729.9
529.15,10589,10643.3,10619.7,10589,10674.1
529.025,10454,10501.7,10478.4,10454,10526.1
528.9,10483,10525.2,10502.8,10483,10545
528.775,10484,10521.5,10500.3,10484,10537.8
528.65,10368,10401.5,10381.6,10368,10415.1
528.525,10423,10453,10434.5,10423,10464.5
528.4,10456.5,10483.5,10466.4,10456.5,10493.4
528.275,10423.5,10447.9,10432,10423.5,10456.4
528.15,10367,10389.2,10374.4,10367,10396.5
528.025,10476.5,10496.7,10483,10476.5,10503.1
527.9,10397.5,10415.9,10403.2,10397.5,10421.6
527.775,10474,10490.8,10479,10474,10495.9
527.65,10350,10365.4,10354.5,10350,10369.9
527.525,10249,10263.2,10253,10249,10267.2
527.4,10413.5,10426.6,10417.1,10413.5,10430.2
527.275,10503,10515.1,10506.2,10503,10518.3
527.15,10389,10400.2,10391.9,10389,10403.1
527.025,10373.5,10383.9,10376.2,10373.5,10386.5
526.9,10373,10382.9,10375.4,10373,10385.4
