,,,,,
,,,,,
Characteristic Energy eV,1486.6,Acquisition Time s,6.25,,
BE_Ag 3d 2,CPS_Ag 3d 2,Ag 3d_1_Ag 3d 2,Ag 3d_2_Ag 3d 2,Background_Ag 3d 2,Envelope_Ag 3d 2
383.9,9436.8,9436.81,9436.83,9436.8,9436.84
383.775,9384.16,9384.17,9384.19,9384.16,9384.2
383.65,9342.88,9342.89,9342.91,9342.88,9342.92
383.525,9383.68,9383.69,9383.71,9383.68,9383.72
383.4,9405.28,9405.29,9405.31,9405.28,9405.32
383.275,9355.68,9355.69,9355.71,9355.68,9355.73
383.15,9318.72,9318.73,9318.76,9318.72,9318.77
383.025,9319.04,9319.05,9319.08,9319.04,9319.09
382.9,9336.8,9336.81,9336.84,9336.8,9336.85
382.775,9349.28,9349.29,9349.32,9349.28,9349.33
382.65,9270.88,9270.89,9270.92,9270.88,9270.94
382.525,9439.2,9439.21,9439.24,9439.2,9439.26
382.4,9439.84,9439.85,9439.89,9439.84,9439.9
382.275,9313.12,9313.13,9313.17,9313.12,9313.18
382.15,9396.64,9396.65,9396.69,9396.64,9396.71
382.025,9268,9268.02,9268.05,9268,9268.07
381.9,9405.76,9405.78,9405.82,9405.76,9405.83
381.775,9312.16,9312.18,9312.22,9312.16,9312.24
381.65,9312.96,9312.98,9313.02,9312.96,9313.04
381.525,9359.04,9359.06,9359.1,9359.04,9359.12
381.4,9335.68,9335.7,9335.75,9335.68,9335.77
381.275,9329.28,9329.3,9329.35,9329.28,9329.37
381.15,9383.68,9383.7,9383.76,9383.68,9383.77
381.025,9310.08,9310.1,9310.16,9310.08,9310.18
380.9,9389.12,9389.14,9389.2,9389.12,9389.22
380.775,9389.76,9389.78,9389.85,9389.76,9389.87
380.65,9279.36,9279.38,9279.45,9279.36,9279.47
380.525,9345.92,9345.94,9346.02,9345.92,9346.04
380.4,9316.8,9316.82,9316.91,9316.8,9316.93
380.275,9358.08,9358.1,9358.19,9358.08,9358.21
380.15,9326.24,9326.26,9326.36,9326.24,9326.38
380.025,9253.6,9253.62,9253.73,9253.6,9253.75
379.9,9316.48,9316.5,9316.61,9316.48,9316.64
379.775,9324.48,9324.51,9324.62,9324.48,9324.65
379.65,9390.72,9390.75,9390.87,9390.72,9390.9
379.525,9346.72,9346.75,9346.88,9346.72,9346.91
379.4,9398.4,9398.43,9398.57,9398.4,9398.6
379.275,9268.32,9268.35,9268.51,9268.32,9268.54
379.15,9278.56,9278.59,9278.76,9278.56,9278.79
379.025,9326.4,9326.43,9326.61,9326.4,9326.65
378.9,9372.96,9372.99,9373.19,9372.96,9373.22
378.775,9310.72,9310.75,9310.97,9310.72,9311
378.65,9324.32,9324.35,9324.59,9324.32,9324.62
378.525,9287.2,9287.24,9287.49,9287.2,9287.53
378.4,9299.04,9299.08,9299.36,9299.04,9299.4
378.275,9290.72,9290.76,9291.07,9290.72,9291.11
378.15,9299.68,9299.72,9300.06,9299.68,9300.1
378.025,9360.8,9360.84,9361.21,9360.8,9361.25
377.9,9319.04,9319.08,9319.5,9319.04,9319.54
377.775,9353.76,9353.8,9354.26,9353.76,9354.31
377.65,9292.16,9292.21,9292.71,9292.16,9292.75
377.525,9372.8,9372.85,9373.41,9372.8,9373.46
377.4,9308.8,9308.85,9309.49,9308.8,9309.54
377.275,9272.32,9272.37,9273.06,9272.32,9273.12
377.15,9276.64,9276.69,9277.47,9276.64,9277.53
377.025,9369.12,9369.18,9370.06,9369.12,9370.11
376.9,9353.76,9353.82,9354.82,9353.76,9354.88
376.775,9377.6,9377.66,9378.81,9377.6,9378.87
376.65,9299.68,9299.74,9301.06,9299.68,9301.12
376.525,9345.6,9345.67,9347.19,9345.6,9347.25
376.4,9355.68,9355.75,9357.52,9355.68,9357.59
376.275,9302.24,9302.31,9304.39,9302.24,9304.46
376.15,9292.32,9292.4,9294.86,9292.32,9294.93
376.025,9278.88,9278.96,9281.9,9278.88,9281.98
375.9,9351.68,9315.15,9318.71,9315.07,9318.8
375.775,9316,9315.14,9319.52,9315.05,9319.6
375.65,9260.8,9314.48,9319.94,9314.39,9320.03
375.525,9328.48,9314.31,9321.26,9314.21,9321.36
375.4,9302.4,9314.17,9323.26,9314.07,9323.36
375.275,9256,9313.46,9325.76,9313.35,9325.87
375.15,9415.04,9312.19,9329.56,9312.07,9329.68
375.025,9368,9311.49,9337.31,9311.37,9337.43
374.9,9371.2,9310.74,9351.18,9310.62,9351.3
374.775,9464.64,9308.81,9374.94,9308.68,9375.07
374.65,9398.24,9307.69,9418.23,9307.55,9418.37
374.525,9482.24,9305.5,9489.32,9305.36,9489.46
374.4,9629.44,9301.44,9597.64,9301.28,9597.8
374.275,9713.76,9296.26,9748.91,9296.09,9749.08
374.15,9966.72,9287.83,9933.43,9287.65,9933.61
374.025,10090.7,9277.74,10128,9277.55,10128.1
373.9,10307.7,9264.8,10291.4,9264.59,10291.6
373.775,10418.6,9250.29,10381.9,9250.08,10382.1
373.65,10449.1,9235.22,10371.9,9234.99,10372.2
373.525,10393.9,9220.66,10261,9220.42,10261.2
373.4,10021.1,9210.61,10079.6,9210.34,10079.9
373.275,9841.92,9202.68,9867.86,9202.4,9868.14
373.15,9635.2,9197.26,9666.97,9196.95,9667.27
373.025,9530.4,9193.08,9502.23,9192.76,9502.55
372.9,9335.52,9191.31,9383.88,9190.96,9384.23
372.775,9377.92,9188.99,9304.9,9188.61,9305.28
372.65,9275.2,9187.93,9257.08,9187.52,9257.49
372.525,9254.72,9187.12,9229.12,9186.68,9229.56
372.4,9223.84,9186.69,9213.23,9186.21,9213.71
372.275,9170.56,9186.54,9204.14,9186.02,9204.66
372.15,9232.96,9185.99,9198.22,9185.43,9198.79
372.025,9210.56,9185.74,9194.56,9185.11,9195.18
371.9,9184.32,9185.79,9192.33,9185.1,9193.02
371.775,9194.56,9185.74,9190.66,9184.98,9191.42
371.65,9253.92,9184.94,9188.67,9184.12,9189.49
371.525,9262.88,9184.05,9186.84,9183.12,9187.77
371.4,9180.8,9184.14,9186.17,9183.1,9187.21
371.275,9187.36,9184.17,9185.62,9183.04,9186.75
371.15,9220.64,9183.83,9184.75,9182.57,9186.02
371.025,9224.8,9183.46,9183.9,9182.04,9185.33
370.9,9218.4,9183.19,9183.19,9181.58,9184.8
370.775,9135.52,9182.84,9182.41,9181.02,9184.24
370.65,9196.48,9182.91,9182.04,9180.82,9184.13
370.525,9271.04,9182.09,9180.76,9179.69,9183.17
370.4,9177.28,9182.45,9180.61,9179.66,9183.4
370.275,9237.76,9182.19,9179.77,9178.93,9183.04
370.15,9197.28,9182.55,9179.45,9178.7,9183.3
370.025,9151.52,9182.96,9179.06,9178.36,9183.66
369.9,9111.68,9183.1,9178.16,9177.54,9183.72
369.775,9128.16,9183.75,9177.49,9176.94,9184.3
369.65,9255.36,9184.44,9176.46,9175.95,9184.94
369.525,9230.24,9186.07,9175.73,9175.27,9186.53
369.4,9192.16,9189.17,9175.47,9175.06,9189.59
369.275,9178.88,9194.11,9175.39,9175.01,9194.49
369.15,9288.8,9200.61,9173.93,9173.58,9200.96
369.025,9224.32,9213.22,9173.26,9172.94,9213.54
368.9,9279.84,9234.82,9171.89,9171.59,9235.12
368.775,9352.8,9272.89,9169.58,9169.31,9273.16
368.65,9502.56,9338.27,9165.37,9165.12,9338.52
368.525,9544.8,9447.69,9160.58,9160.35,9447.93
368.4,9607.2,9615.92,9154.94,9154.72,9616.14
368.275,9828,9847.36,9146.46,9146.25,9847.56
368.15,10019.2,10129,9135.46,9135.27,10129.2
368.025,10417.9,10418.8,9119.31,9119.14,10419
367.9,10552.5,10659,9101.27,9101.11,10659.1
367.775,10781.1,10784.4,9080.13,9079.97,10784.5
367.65,10841,10756.8,9057.97,9057.82,10757
367.525,10602.1,10581.7,9038.53,9038.4,10581.8
367.4,10266.4,10302.8,9023.07,9022.95,10303
367.275,9904.8,9984.94,9011.97,9011.86,9985.06
367.15,9618.72,9687.3,9004.33,9004.22,9687.41
367.025,9451.04,9446.09,8998.71,8998.6,9446.19
366.9,9296.32,9272.75,8994.96,8994.86,9272.85
366.775,9193.28,9159.6,8992.45,8992.36,9159.69
366.65,9171.2,9090.22,8990.2,8990.11,9090.31
366.525,9039.04,9050.76,8989.58,8989.49,9050.84
366.4,9079.04,9027.51,8988.45,8988.37,9027.59
366.275,8980.8,9014.65,8988.35,8988.28,9014.72
366.15,8987.04,9006.96,8988.33,8988.26,9007.03
366.025,8998.88,9001.97,8988.2,8988.13,9002.04
365.9,9012.64,8998.43,8987.88,8987.82,8998.5
365.775,8988,8996.17,8987.88,8987.82,8996.23
365.65,8973.44,8994.35,8987.7,8987.64,8994.41
365.525,8997.44,8993,8987.57,8987.52,8993.06
365.4,8863.52,8990.54,8986.05,8985.99,8990.59
365.275,9006.08,8989.56,8985.79,8985.74,8989.61
365.15,8953.28,8988.58,8985.39,8985.34,8988.62
365.025,9015.84,8987.72,8985.01,8984.96,8987.77
364.9,8985.76,8988.14,8985.8,8985.76,8988.19
364.775,8880.16,8882.23,8880.2,8880.16,8882.27
364.65,8932.8,8934.61,8932.84,8932.8,8934.65
364.525,8959.04,8960.63,8959.08,8959.04,8960.67
364.4,8928.96,8930.37,8929,8928.96,8930.41
364.275,8973.44,8974.69,8973.48,8973.44,8974.73
364.15,8916.16,8917.28,8916.2,8916.16,8917.31
364.025,8914.4,8915.43,8914.43,8914.4,8915.47
363.9,8948.96,8949.88,8948.99,8948.96,8949.91
