,,,,,,
,,,,,,
Characteristic Energy eV,1486.6,Acquisition Time s,1.25,,,
BE_C 1s 4,CPS_C 1s 4,C 1s_1_C 1s 4,C 1s_2_C 1s 4,C 1s_3_C 1s 4,Background_C 1s 4,Envelope_C 1s 4
295.9,6753.6,6754.58,6754.51,6759.17,6753.6,6761.06
295.775,6563.2,6564.21,6564.15,6569.58,6563.2,6571.54
295.65,6563.2,6564.25,6564.19,6570.57,6563.2,6572.61
295.525,6556,6557.09,6557.03,6564.56,6556,6566.69
295.4,6689.6,6690.74,6690.68,6699.65,6689.6,6701.86
295.275,6528,6529.18,6529.13,6539.91,6528,6542.22
295.15,6568.8,6570.02,6569.99,6583.07,6568.8,6585.48
295.025,6499.2,6500.47,6500.44,6516.54,6499.2,6519.04
294.9,6472,6473.32,6473.29,6493.41,6472,6496.03
294.775,6603.2,6604.58,6604.55,6630.18,6603.2,6632.91
294.65,6583.2,6584.64,6584.63,6618.07,6583.2,6620.93
294.525,6468.8,6470.29,6470.3,6515.32,6468.8,6518.32
294.4,6568.8,6570.35,6570.38,6633.26,6568.8,6636.39
294.275,6600,6592.77,6592.8,6684.18,6591.15,6687.45
294.15,6604.8,6592.78,6592.81,6730.69,6591.08,6734.11
294.025,6692,6592.33,6592.38,6806.46,6590.55,6810.07
293.9,6824,6591.17,6591.25,6928.11,6589.31,6931.91
293.775,7272.8,6587.64,6587.75,7115.12,6585.7,7119.11
293.65,7456.8,6583.11,6583.25,7390.22,6581.1,7394.39
293.525,7698.4,6577.31,6577.46,7766.33,6575.19,7770.72
293.4,8243.2,6568.61,6568.77,8235.71,6566.38,8240.33
293.275,8788,6556.98,6557.19,8762.77,6554.63,8767.68
293.15,9355.2,6542.28,6542.55,9280.19,6539.83,9285.37
293.025,9606.4,6526.18,6526.51,9701.52,6523.62,9706.98
292.9,10033.6,6507.76,6508.12,9940.27,6505.07,9946.02
292.775,9973.6,6489.59,6489.95,9943.88,6486.74,9949.95
292.65,9548.8,6473.56,6474.02,9709.42,6470.55,9715.9
292.525,9244,6459.06,6459.62,9283.5,6455.89,9290.4
292.4,8940,6446.1,6446.76,8748.26,6442.76,8755.59
292.275,8212,6436.91,6437.67,8195.56,6433.41,8203.31
292.15,7728,6430.28,6431.09,7696.24,6426.57,7704.47
292.025,7286.4,6425.98,6426.88,7291.42,6422.02,7300.23
291.9,6869.6,6423.86,6424.96,6991.75,6419.66,7001.25
291.775,6930.4,6421.4,6422.71,6784.06,6416.96,6794.25
291.65,6603.2,6420.66,6422,6649.78,6415.97,6660.49
291.525,6454.4,6420.7,6422.29,6566.37,6415.77,6577.82
291.4,6408.8,6421.05,6422.8,6515.46,6415.73,6527.85
291.275,6384,6389.71,6391.68,6452.6,6384,6466
291.15,6402.4,6408.5,6410.77,6451.56,6402.4,6466.04
291.025,6421.6,6428.1,6430.75,6458.21,6421.6,6473.85
290.9,6275.2,6282.09,6285.22,6303.38,6275.2,6320.29
290.775,6341.6,6348.96,6352.61,6363.87,6341.6,6382.24
290.65,6301.6,6309.63,6313.73,6319.58,6301.6,6339.74
290.525,6402.4,6411.09,6415.82,6417.16,6402.4,6439.27
290.4,6312.8,6321.9,6327.69,6325.08,6312.8,6349.07
290.275,6552,6561.82,6568.59,6562.35,6552,6588.76
290.15,6317.6,6328.23,6336.17,6326.41,6317.6,6355.6
290.025,6464.8,6393.04,6402.4,6389.08,6381.52,6421.48
289.9,6362.4,6394.02,6405.1,6388.04,6381.5,6424.16
289.775,6428.8,6395.09,6408.28,6387.16,6381.45,6427.62
289.65,6335.2,6396.3,6412.1,6386.41,6381.41,6431.99
289.525,6399.2,6397.69,6416.74,6385.81,6381.39,6437.46
289.4,6363.2,6399.28,6422.43,6385.29,6381.37,6444.24
289.275,6295.2,6401.02,6429.41,6384.78,6381.29,6452.62
289.15,6449.6,6403.03,6438.22,6384.35,6381.22,6463.15
289.025,6565.6,6405.24,6449.41,6383.85,6381.04,6476.42
288.9,6616.8,6407.77,6464.08,6383.34,6380.81,6493.56
288.775,6652,6410.7,6483.86,6382.84,6380.55,6516.3
288.65,6963.2,6413.87,6510.99,6382.12,6379.98,6547.03
288.525,6808,6417.86,6549.86,6381.51,6379.56,6590.09
288.4,7024.8,6422.44,6606.2,6380.68,6378.93,6651.45
288.275,7083.2,6428,6689.79,6379.85,6378.25,6741.14
288.15,7039.2,6434.9,6814.71,6379.09,6377.6,6873.49
288.025,7339.2,6443.17,7000.4,6378.04,6376.67,7068.27
287.9,7444,6453.54,7272.99,6376.88,6375.62,7352.16
287.775,7837.6,6466.47,7663.64,6375.35,6374.2,7757.06
287.65,8367.2,6482.93,8203.81,6373.33,6372.25,8315.56
287.525,9105.6,6504.37,8919.29,6370.59,6369.59,9055.08
287.4,9784,6533.48,9820.28,6367.19,6366.26,9988.43
287.275,10886.4,6573.85,10889.5,6362.7,6361.85,11102.4
287.15,12283.2,6631.38,12072.6,6356.88,6356.08,12348.7
287.025,13625.6,6715.68,13278.1,6349.74,6348.99,13645.6
286.9,14924.8,6841.33,14384.7,6341.33,6340.62,14886.1
286.775,16037.6,7029.72,15258.8,6331.82,6331.17,15958
286.65,16820,7310.46,15784,6321.55,6320.94,16774.2
286.525,17507.2,7721.4,15884.6,6310.61,6310.03,17296.5
286.4,17669.6,8307.34,15544.1,6299.5,6298.95,17553
286.275,17375.2,9113.96,14810,6288.66,6288.15,17636.3
286.15,17565.6,10177.2,13783.2,6277.63,6277.15,17683.6
286.025,17591.2,11510.8,12592,6266.57,6266.12,17837.2
285.9,18258.4,13090.2,11365.9,6254.85,6254.42,18202.1
285.775,18863.2,14841.7,10213.6,6242.53,6242.12,18813.5
285.65,19667.2,16637.9,9207.44,6229.42,6229.03,19616.7
285.525,20699.2,18308.7,8381.68,6215.28,6214.92,20475.9
285.4,21128,19666.7,7739.57,6200.72,6200.38,21206.3
285.275,21700.8,20539.8,7261.67,6185.59,6185.26,21616.6
285.15,21396,20809.8,6918.16,6170.74,6170.42,21557.8
285.025,20912.8,20437.3,6677.14,6156.34,6156.05,20958.7
284.9,19547.2,19472.7,6510.89,6143.27,6142.99,19840.9
284.775,18292,18043,6396.35,6131.41,6131.14,18308.5
284.65,16636.8,16324,6316.94,6121.15,6120.89,16520.3
284.525,14669.6,14503.8,6261.4,6112.8,6112.56,14652.9
284.4,12956,12747.9,6221.85,6106.12,6105.88,12864.1
284.275,11200,11177.2,6193.42,6101.14,6100.91,11270
284.15,9640,9859.56,6172.75,6097.68,6097.46,9935.06
284.025,8830.4,8813.56,6157.1,6095,6094.8,8876.07
283.9,8012.8,8021.9,6145.21,6093.12,6092.93,8074.38
283.775,7487.2,7446.16,6135.95,6091.76,6091.57,7490.74
283.65,6911.2,7040.82,6128.82,6090.95,6090.77,7079.05
283.525,6690.4,6761.81,6123.08,6090.36,6090.18,6794.88
283.4,6471.2,6572.3,6118.48,6089.98,6089.81,6601.13
283.275,6476.8,6443.77,6114.57,6089.59,6089.43,6469.07
283.15,6275.2,6356.07,6111.43,6089.41,6089.25,6378.4
283.025,6280,6295.12,6108.74,6089.21,6089.07,6314.95
282.9,6219.2,6251.9,6106.48,6089.08,6088.94,6269.59
282.775,6192.8,6220.49,6104.55,6088.97,6088.84,6236.34
282.65,6178.4,6197.05,6102.88,6088.88,6088.75,6211.31
282.525,6127.2,6179.15,6101.46,6088.84,6088.71,6192.03
282.4,6135.2,6165.14,6100.22,6088.79,6088.67,6176.81
282.275,6195.2,6153.91,6099.06,6088.68,6088.57,6164.52
282.15,6056,6144.88,6098.1,6088.65,6088.53,6154.56
282.025,6014.4,6063.37,6023.15,6014.51,6014.4,6072.23
281.9,6193.6,6236.46,6201.62,6193.71,6193.6,6244.58
281.775,6075.2,6112.95,6082.57,6075.3,6075.2,6120.42
281.65,6176,6209.43,6182.79,6176.1,6176,6216.32
281.525,6122.4,6152.16,6128.67,6122.49,6122.4,6158.52
281.4,6012.8,6039.42,6018.6,6012.89,6012.8,6045.3
281.275,6108,6131.9,6113.52,6108.09,6108,6137.52
281.15,6108,6129.55,6113.08,6108.09,6108,6134.72
281.025,5992,6011.5,5996.65,5992.08,5992,6016.24
280.9,6033.6,6051.31,6037.99,6033.68,6033.6,6055.78
280.775,6155.2,6171.33,6159.33,6155.28,6155.2,6175.54
280.65,5962.4,5977.13,5966.26,5962.48,5962.4,5981.07
280.525,6046.4,6059.9,6050,6046.47,6046.4,6063.57
280.4,6188,6200.4,6191.34,6188.07,6188,6203.8
280.275,6216.8,6228.21,6219.94,6216.87,6216.8,6231.42
280.15,6002.4,6012.93,6005.37,6002.47,6002.4,6015.97
280.025,5949.6,5959.33,5952.41,5949.66,5949.6,5962.21
279.9,6064,6073.02,6066.64,6064.06,6064,6075.72
