,,,,
,,,,
Characteristic Energy eV,1486.6,Acquisition Time s,2.5,
BE_Zn 2p3 8,CPS_Zn 2p3 8,Zn 2p3/2_1_Zn 2p3 8,Background_Zn 2p3 8,Envelope_Zn 2p3 8
1026.9,9580.8,9581.22,9580.8,9581.22
1026.77,9453.6,9454.05,9453.6,9454.05
1026.65,9495.6,9496.09,9495.6,9496.09
1026.52,9532,9532.53,9532,9532.53
1026.4,9490.8,9491.38,9490.8,9491.38
1026.27,9499.6,9500.23,9499.6,9500.23
1026.15,9481.2,9481.89,9481.2,9481.89
1026.02,9461.6,9462.36,9461.6,9462.36
1025.9,9511.6,9512.44,9511.6,9512.44
1025.77,9571.2,9572.13,9571.2,9572.13
1025.65,9441.2,9442.23,9441.2,9442.23
1025.52,9497.6,9498.74,9497.6,9498.74
1025.4,9526.8,9528.08,9526.8,9528.08
1025.27,9605.2,9606.64,9605.2,9606.64
1025.15,9661.6,9663.23,9661.6,9663.23
1025.02,9586.4,9588.25,9586.4,9588.25
1024.9,9549.2,9551.31,9549.2,9551.31
1024.77,9532.8,9535.23,9532.8,9535.23
1024.65,9619.6,9622.42,9619.6,9622.42
1024.52,9624.8,9628.11,9624.8,9628.11
1024.4,9636,9639.92,9636,9639.92
1024.27,9593.6,9598.31,9593.6,9598.31
1024.15,9600.4,9614.59,9608.85,9614.59
1024.02,9632.4,9616.12,9609,9616.12
1023.9,9642.8,9618.24,9609.21,9618.24
1023.77,9674,9621.35,9609.62,9621.35
1023.65,9623.2,9625.32,9609.7,9625.32
1023.52,9727.6,9631.75,9610.44,9631.75
1023.4,9585.2,9640.27,9610.6,9640.27
1023.27,9608.8,9652.53,9610.61,9652.53
1023.15,9658.8,9670.48,9610.91,9670.48
1023.02,9709.2,9695.93,9611.52,9695.93
1022.9,9685.2,9730.22,9611.98,9730.22
1022.77,9879.2,9776.11,9613.65,9776.11
1022.65,9818,9832.51,9614.92,9832.51
1022.52,9889.2,9899.22,9616.64,9899.22
1022.4,9950.4,9973.19,9618.72,9973.19
1022.27,10122.4,10050,9621.86,10050
1022.15,10139.2,10122,9625.09,10122
1022.02,10073.6,10181.1,9627.89,10181.1
1021.9,10224,10221.7,9631.61,10221.7
1021.77,10321.2,10238.8,9635.91,10238.8
1021.65,10186,10229.1,9639.35,10229.1
1021.52,10291.6,10195.8,9643.42,10195.8
1021.4,10132,10142.3,9646.47,10142.3
1021.27,10097.2,10076.2,9649.28,10076.2
1021.15,10059.2,10005.1,9651.84,10005.1
1021.02,9864.4,9934.57,9653.16,9934.57
1020.9,9853.6,9870.97,9654.41,9870.97
1020.77,9848,9817.24,9655.62,9817.24
1020.65,9868.4,9774.52,9656.95,9774.52
1020.52,9740.8,9741.39,9657.47,9741.39
1020.4,9762,9717.34,9658.13,9717.34
1020.27,9660,9699.8,9658.14,9699.8
1020.15,9707.2,9687.95,9658.44,9687.95
1020.02,9660.4,9679.65,9658.46,9679.65
1019.9,9785.2,9674.79,9659.25,9674.79
1019.77,9623.2,9671.15,9659.47,9671.15
1019.65,9714.8,9668.81,9659.82,9668.81
1019.52,9774,9667.62,9660.53,9667.62
1019.4,9660.4,9666.25,9660.53,9666.25
1019.27,9547.2,9551.89,9547.2,9551.89
1019.15,9681.2,9685.11,9681.2,9685.11
1019.02,9684,9687.3,9684,9687.3
1018.9,9749.6,9752.42,9749.6,9752.42
1018.77,9643.2,9645.63,9643.2,9645.63
1018.65,9746.4,9748.51,9746.4,9748.51
1018.52,9695.6,9697.44,9695.6,9697.44
1018.4,9622,9623.62,9622,9623.62
1018.27,9728.8,9730.24,9728.8,9730.24
1018.15,9553.6,9554.88,9553.6,9554.88
1018.02,9686,9687.14,9686,9687.14
1017.9,9681.2,9682.23,9681.2,9682.23
