,,,,,
,,,,,
Characteristic Energy eV,1486.6,Acquisition Time s,3.75,,
BE_N 1s 5,CPS_N 1s 5,N 1s_1_N 1s 5,N 1s_2_N 1s 5,Background_N 1s 5,Envelope_N 1s 5
406.9,9660.8,9663.4,9661.5,9660.8,9664.1
406.775,9672.8,9675.65,9673.54,9672.8,9676.39
406.65,9708,9711.13,9708.79,9708,9711.92
406.525,9686.4,9689.86,9687.23,9686.4,9690.69
406.4,9716.8,9720.63,9717.68,9716.8,9721.51
406.275,9635.47,9639.73,9636.39,9635.47,9640.66
406.15,9715.2,9719.96,9716.17,9715.2,9720.93
406.025,9698.67,9704.01,9699.7,9698.67,9705.04
405.9,9703.73,9709.75,9704.84,9703.73,9710.86
405.775,9659.2,9666.02,9660.37,9659.2,9667.2
405.65,9634.67,9642.44,9635.91,9634.67,9643.69
405.525,9676.27,9685.19,9677.59,9676.27,9686.51
405.4,9645.87,9656.17,9647.26,9645.87,9657.57
405.275,9700,9712.01,9701.49,9700,9713.49
405.15,9678.13,9691.28,9678.77,9677.16,9692.89
405.025,9653.33,9693.94,9678.89,9677.15,9695.68
404.9,9673.87,9697.37,9678.96,9677.15,9699.18
404.775,9765.07,9701.86,9679.07,9677.13,9703.8
404.65,9787.47,9707.93,9679.19,9677.11,9710.02
404.525,9720.53,9716.43,9679.34,9677.1,9718.67
404.4,9744.8,9728.66,9679.51,9677.09,9731.08
404.275,9709.33,9746.79,9679.7,9677.08,9749.41
404.15,9767.73,9774.26,9679.9,9677.06,9777.1
404.025,9854.13,9816.46,9680.1,9677.02,9819.55
403.9,9913.6,9881.31,9680.33,9676.97,9884.67
403.775,9947.47,9979.56,9680.58,9676.92,9983.22
403.65,10189.1,10124.4,9680.82,9676.81,10128.4
403.525,10361.9,10329.2,9681.07,9676.67,10333.6
403.4,10620.8,10604.6,9681.32,9676.47,10609.5
403.275,10975.5,10952.8,9681.55,9676.2,10958.1
403.15,11374.1,11362.3,9681.78,9675.84,11368.3
403.025,11812.8,11804.8,9682.01,9675.4,11811.4
402.9,12149.3,12234.7,9682.28,9674.88,12242.1
402.775,12585.6,12596.7,9682.58,9674.27,12605
402.65,12846.4,12837,9683,9673.61,12846.4
402.525,12946.7,12916.4,9683.59,9672.92,12927.1
402.4,12924,12821.5,9684.44,9672.24,12833.7
402.275,12538.9,12568.1,9685.69,9671.65,12582.1
402.15,12270.7,12196.9,9687.41,9671.1,12213.2
402.025,11743.2,11762.9,9689.79,9670.67,11782
401.9,11302.9,11321,9693.01,9670.33,11343.7
401.775,10938.4,10915,9697.32,9670.06,10942.3
401.65,10539.2,10572.2,9703.17,9669.88,10605.5
401.525,10291.2,10302.5,9711.18,9669.75,10344
401.4,10193.1,10103,9722.24,9669.64,10155.6
401.275,10051.7,9962.51,9737.83,9669.56,10030.8
401.15,10026.4,9867.35,9760.01,9669.49,9957.87
401.025,10085.9,9804.59,9791.87,9669.4,9927.06
400.9,9971.2,9763.77,9837.58,9669.34,9932.01
400.775,9938.4,9737.17,9902.63,9669.28,9970.52
400.65,10071.2,9719.56,9993.62,9669.2,10044
400.525,10231.5,9707.59,10117.8,9669.08,10156.3
400.4,10319.2,9699.19,10282.3,9668.95,10312.5
400.275,10458.7,9693.08,10492,9668.78,10516.3
400.15,10574.7,9688.49,10748.4,9668.59,10768.3
400.025,11050.1,9684.84,11046.4,9668.3,11062.9
399.9,11372,9681.87,11373.9,9667.95,11387.8
399.775,11724.5,9679.37,11710.6,9667.52,11722.5
399.65,12052.3,9677.2,12029.9,9667.02,12040.1
399.525,12341.1,9675.27,12301.6,9666.46,12310.4
399.4,12530.1,9673.55,12497.3,9665.86,12505
399.275,12686.9,9671.98,12594.1,9665.23,12600.8
399.15,12766.9,9670.54,12581.2,9664.58,12587.2
399.025,12393.1,9669.3,12459.3,9664.01,12464.6
398.9,12213.9,9668.2,12243.4,9663.48,12248.1
398.775,11860.8,9667.25,11957.3,9663.02,11961.5
398.65,11458.7,9666.45,11630.7,9662.64,11634.5
398.525,11249.9,9665.74,11293.2,9662.31,11296.6
398.4,10943.7,9665.15,10970.2,9662.04,10973.3
398.275,10652,9664.66,10680.2,9661.84,10683
398.15,10587.2,9664.22,10433.8,9661.64,10436.4
398.025,10333.6,9663.86,10234.1,9661.5,10236.4
397.9,10235.7,9663.54,10079,9661.38,10081.2
397.775,10031.5,9663.29,9962.66,9661.31,9964.65
397.65,9966.93,9663.12,9878.01,9661.24,9879.89
397.525,9925.07,9662.9,9817.71,9661.19,9819.43
397.4,9858.67,9662.71,9775.42,9661.15,9776.98
397.275,9741.6,9662.6,9745.96,9661.13,9747.44
397.15,9704.53,9662.5,9725.38,9661.12,9726.76
397.025,9678.67,9662.4,9710.89,9661.12,9712.17
396.9,9736,9662.28,9700.47,9661.1,9701.66
396.775,9642.67,9662.19,9692.89,9661.1,9693.98
396.65,9629.07,9662.12,9687.22,9661.09,9688.25
396.525,9734.13,9662.04,9682.88,9661.08,9683.85
396.4,9689.87,9661.98,9679.51,9661.07,9680.42
396.275,9650.67,9661.92,9676.83,9661.07,9677.68
396.15,9657.33,9661.86,9674.66,9661.07,9675.45
396.025,9675.2,9675.95,9687.02,9675.2,9687.77
395.9,9601.87,9602.58,9612.22,9601.87,9612.93
395.775,9594.13,9594.8,9603.26,9594.13,9603.93
395.65,9634.13,9634.76,9642.23,9634.13,9642.86
395.525,9597.6,9598.19,9604.81,9597.6,9605.4
395.4,9573.33,9573.9,9579.79,9573.33,9580.35
395.275,9600,9600.53,9605.8,9600,9606.34
395.15,9675.47,9675.97,9680.7,9675.47,9681.21
395.025,9600.53,9601.01,9605.28,9600.53,9605.76
394.9,9635.47,9635.92,9639.78,9635.47,9640.23
