,,,,,
,,,,,
Characteristic Energy eV,1486.6,Acquisition Time s,2.5,,
BE_Au 4f 1,CPS_Au 4f 1,Au 4f_1_Au 4f 1,Au 4f_2_Au 4f 1,Background_Au 4f 1,Envelope_Au 4f 1
94.9,2260,2260,2260,2260,2260
94.775,2192.8,2192.8,2192.8,2192.8,2192.8
94.65,2180.4,2180.4,2180.4,2180.4,2180.4
94.525,2193.2,2193.2,2193.2,2193.2,2193.2
94.4,2134.4,2134.4,2134.4,2134.4,2134.4
94.275,2198.4,2198.4,2198.4,2198.4,2198.4
94.15,2132,2132,2132,2132,2132
94.025,2209.2,2209.2,2209.2,2209.2,2209.2
93.9,2154.4,2154.4,2154.4,2154.4,2154.4
93.775,2128.8,2128.8,2128.8,2128.8,2128.8
93.65,2141.6,2141.6,2141.6,2141.6,2141.6
93.525,2075.2,2075.2,2075.2,2075.2,2075.2
93.4,2070,2070,2070,2070,2070
93.275,2140,2140,2140,2140,2140
93.15,2093.2,2093.2,2093.2,2093.2,2093.2
93.025,2051.6,2051.6,2051.6,2051.6,2051.6
92.9,2129.6,2129.6,2129.6,2129.6,2129.6
92.775,2084.4,2084.4,2084.4,2084.4,2084.4
92.65,2072.4,2072.4,2072.4,2072.4,2072.4
92.525,2021.2,2021.2,2021.2,2021.2,2021.2
92.4,2018.4,2018.4,2018.4,2018.4,2018.4
92.275,2006.4,2006.4,2006.4,2006.4,2006.4
92.15,2081.2,2081.2,2081.2,2081.2,2081.2
92.025,2036.8,2036.8,2036.8,2036.8,2036.8
91.9,2015.6,2015.6,2015.61,2015.6,2015.61
91.775,2041.6,2041.6,2041.61,2041.6,2041.61
91.65,2042,2042,2042.03,2042,2042.03
91.525,2048.4,2048.4,2048.45,2048.4,2048.45
91.4,1986,1986,1986.08,1986,1986.08
91.275,2103.2,2103.2,2103.34,2103.2,2103.34
91.15,2058.8,2058.8,2059.04,2058.8,2059.04
91.025,2130.4,2130.4,2130.81,2130.4,2130.81
90.9,2094.8,2094.8,2095.49,2094.8,2095.49
90.775,2135.2,2135.2,2136.34,2135.2,2136.34
90.65,2120,2120,2121.86,2120,2121.86
90.525,2078,2078,2080.98,2078,2080.98
90.4,2130.4,2130.4,2135.11,2130.4,2135.11
90.275,2112.8,2112.8,2120.17,2112.8,2120.17
90.15,2159.6,2159.6,2170.97,2159.6,2170.97
90.025,2135.6,2135.6,2152.94,2135.6,2152.94
89.9,2179.6,2162.99,2189.15,2162.99,2189.15
89.775,2174,2162.95,2201.95,2162.95,2201.95
89.65,2161.6,2162.94,2220.48,2162.94,2220.48
89.525,2217.6,2162.7,2246.74,2162.7,2246.74
89.4,2250.4,2162.31,2283.94,2162.31,2283.94
89.275,2358.8,2161.44,2336.08,2161.44,2336.08
89.15,2418.8,2160.31,2409.25,2160.31,2409.25
89.025,2483.6,2158.88,2511.56,2158.88,2511.56
88.9,2693.2,2156.53,2653.76,2156.53,2653.76
88.775,2880.8,2153.33,2852.07,2153.33,2852.07
88.65,3146.4,2148.95,3129.23,2148.95,3129.24
88.525,3586,2142.62,3518.24,2142.61,3518.24
88.4,4171.2,2133.67,4067.07,2133.67,4067.07
88.275,5079.2,2120.68,4841.56,2120.68,4841.56
88.15,6121.6,2103.05,5925.17,2103.03,5925.18
88.025,7582.8,2078.89,7384.37,2078.86,7384.4
87.9,9238.8,2047.33,9156.07,2047.28,9156.12
87.775,10679.6,2009.3,10821.1,2009.21,10821.2
87.65,11534.8,1967.35,11548.9,1967.2,11549.1
87.525,10995.6,1927.65,10825.3,1927.38,10825.5
87.4,9539.6,1894.26,9124.63,1893.8,9125.08
87.275,7594.8,1869.43,7284.91,1868.66,7285.68
87.15,5741.6,1852.85,5758.31,1851.58,5759.59
87.025,4474.4,1842.09,4621.49,1840.01,4623.57
86.9,3550.8,1835.82,3809.43,1832.46,3812.79
86.775,3109.2,1832.17,3233.77,1826.83,3239.11
86.65,2740,1831.18,2825.39,1822.8,2833.76
86.525,2576.4,1832.46,2534,1819.48,2546.98
86.4,2302.4,1837.25,2325.79,1817.35,2345.68
86.275,2258,1845.53,2176.05,1815.41,2206.17
86.15,2132.4,1859.1,2068.7,1814.01,2113.79
86.025,2088,1879.57,1991.61,1812.8,2058.37
85.9,2085.6,1909.45,1936.22,1811.6,2034.08
85.775,2058,1952.61,1896.65,1810.51,2038.75
85.65,2149.6,2013.65,1868.01,1809.02,2072.65
85.525,2151.2,2099.91,1847.51,1807.51,2139.92
85.4,2254.8,2220.62,1832.38,1805.53,2247.46
85.275,2476.8,2388.66,1820.4,1802.57,2406.49
85.15,2692,2623.01,1810.35,1798.65,2634.7
85.025,2966.4,2950.47,1801.08,1793.5,2958.05
84.9,3449.6,3409.78,1791.05,1786.2,3414.63
84.775,4068,4056.58,1779.2,1776.13,4059.65
84.65,5108,4969.37,1763.35,1761.44,4971.29
84.525,6372.8,6253.1,1742.28,1741.1,6254.27
84.4,8107.6,8014.32,1713.73,1713.02,8015.04
84.275,10295.2,10259.7,1675.6,1675.17,10260.2
84.15,12394.8,12637.6,1628.14,1627.89,12637.9
84.025,13812.8,14190.5,1574.29,1574.14,14190.7
83.9,13737.6,13921,1520.58,1520.5,13921.1
83.775,12263.6,11989.5,1473.16,1473.11,11989.5
83.65,9869.2,9499.16,1436.11,1436.08,9499.19
83.525,7161.2,7283.24,1410.85,1410.83,7283.26
83.4,5314,5587.37,1393.63,1393.62,5587.38
83.275,3955.2,4363.33,1382.32,1382.32,4363.33
83.15,3033.6,3495.13,1375.04,1375.04,3495.13
83.025,2525.6,2880.04,1369.96,1369.96,2880.04
82.9,2212.8,2442.5,1366.25,1366.25,2442.5
82.775,1963.6,2129.96,1363.61,1363.61,2129.96
82.65,1767.6,1906.17,1361.83,1361.83,1906.17
82.525,1705.2,1745.5,1360.31,1360.31,1745.5
82.4,1507.2,1630.7,1359.67,1359.67,1630.7
82.275,1494.8,1548.47,1359.07,1359.07,1548.47
82.15,1443.6,1490.01,1358.7,1358.7,1490.01
82.025,1372.8,1448.87,1358.64,1358.64,1448.87
81.9,1410.8,1419.81,1358.41,1358.41,1419.81
81.775,1357.2,1399.78,1358.4,1358.4,1399.78
81.65,1307.2,1334.78,1307.2,1307.2,1334.78
81.525,1278,1296.18,1278,1278,1296.18
81.4,1274,1285.83,1274,1274,1285.83
81.275,1258.4,1266.01,1258.4,1258.4,1266.01
81.15,1304.8,1309.63,1304.8,1304.8,1309.63
81.025,1242.4,1245.43,1242.4,1242.4,1245.43
80.9,1242.4,1244.28,1242.4,1242.4,1244.28
80.775,1263.2,1264.34,1263.2,1263.2,1264.34
80.65,1244.8,1245.49,1244.8,1244.8,1245.49
80.525,1213.6,1214.01,1213.6,1213.6,1214.01
80.4,1201.2,1201.44,1201.2,1201.2,1201.44
80.275,1191.6,1191.74,1191.6,1191.6,1191.74
80.15,1212.4,1212.48,1212.4,1212.4,1212.48
80.025,1195.6,1195.64,1195.6,1195.6,1195.64
79.9,1229.6,1229.62,1229.6,1229.6,1229.62
