,,,,
,,,,
Characteristic Energy eV,1486.6,Acquisition Time s,2.5,
BE_Na 1s 9,CPS_Na 1s 9,Na 1s_1_Na 1s 9,Background_Na 1s 9,Envelope_Na 1s 9
1076.9,8687.6,8688.65,8687.6,8688.65
1076.77,8496.4,8497.53,8496.4,8497.53
1076.65,8510.4,8511.61,8510.4,8511.61
1076.52,8550.4,8551.71,8550.4,8551.71
1076.4,8599.2,8600.61,8599.2,8600.61
1076.27,8593.2,8594.73,8593.2,8594.73
1076.15,8556,8557.66,8556,8557.66
1076.02,8668.4,8670.2,8668.4,8670.2
1075.9,8598.4,8600.36,8598.4,8600.36
1075.77,8623.6,8625.75,8623.6,8625.75
1075.65,8646.8,8649.15,8646.8,8649.15
1075.52,8636,8638.59,8636,8638.59
1075.4,8622.8,8625.66,8622.8,8625.66
1075.27,8530.4,8533.56,8530.4,8533.56
1075.15,8612,8615.52,8612,8615.52
1075.02,8622.8,8626.73,8622.8,8626.73
1074.9,8650.4,8654.81,8650.4,8654.81
1074.77,8502.4,8507.37,8502.4,8507.37
1074.65,8529.2,8534.84,8529.2,8534.84
1074.52,8558.8,8565.25,8558.8,8565.25
1074.4,8569.6,8577.02,8569.6,8577.02
1074.27,8625.2,8573.37,8564.76,8573.37
1074.15,8498,8575.41,8565.3,8575.41
1074.02,8547.6,8577.44,8565.45,8577.44
1073.9,8686.4,8580.85,8566.42,8580.85
1073.77,8650.8,8584.73,8567.1,8584.73
1073.65,8599.2,8589.25,8567.36,8589.25
1073.52,8670,8595.84,8568.18,8595.84
1073.4,8667.2,8604.5,8568.98,8604.5
1073.27,8561.2,8615.39,8569.04,8615.39
1073.15,8682.4,8631.21,8569.95,8631.21
1073.02,8650.8,8652.25,8570.6,8652.25
1072.9,8729.2,8681.11,8571.88,8681.11
1072.77,8731.6,8719.1,8573.16,8719.1
1072.65,8834.8,8769.07,8575.27,8769.07
1072.52,8793.6,8831.62,8577.02,8831.62
1072.4,9041.6,8910.24,8580.76,8910.24
1072.27,9023.2,9002.93,8584.32,9002.93
1072.15,9099.6,9109.18,8588.46,9109.18
1072.02,9177.2,9225.93,8593.2,9225.93
1071.9,9464,9349.8,8600.2,9349.8
1071.77,9322.8,9470.62,8606.01,9470.62
1071.65,9595.2,9583.84,8613.97,9583.84
1071.52,9569.6,9678.88,8621.65,9678.88
1071.4,9661.2,9749.1,8630.01,9749.1
1071.27,9920.4,9790.38,8640.39,9790.38
1071.15,9723.2,9796.18,8649.1,9796.18
1071.02,9844.4,9769.35,8658.71,9769.35
1070.9,9836,9712.18,8668.18,9712.18
1070.77,9570.4,9628.48,8675.44,9628.48
1070.65,9631.6,9528.67,8683.13,9528.67
1070.52,9387.6,9418.49,8688.79,9418.49
1070.4,9339.6,9307.24,8694.03,9307.24
1070.27,9074.8,9199.66,8697.09,9199.66
1070.15,9120,9103,8700.49,9103
1070.02,8961.6,9018.34,8702.59,9018.34
1069.9,8984,8948.16,8704.85,8948.16
1069.77,8922.4,8891.41,8706.6,8891.41
1069.65,8758.4,8845.99,8707.02,8845.99
1069.52,8773.2,8811.51,8707.55,8811.51
1069.4,8660.4,8785.66,8707.94,8785.66
1069.27,8794,8767.01,8708.63,8767.01
1069.15,8744,8753.17,8708.91,8753.17
1069.02,8738.4,8743.16,8709.15,8743.16
1068.9,8671.2,8736.01,8709.46,8736.01
1068.77,8706,8730.57,8709.49,8730.57
1068.65,8762.8,8726.94,8709.92,8726.94
1068.52,8746.4,8724.18,8710.21,8724.18
1068.4,8687.2,8722.04,8710.4,8722.04
1068.27,8697.6,8707.43,8697.6,8707.43
1068.15,8696.8,8705.19,8696.8,8705.19
1068.02,8736,8743.24,8736,8743.24
1067.9,8795.6,8801.9,8795.6,8801.9
