,,,,
,,,,
Characteristic Energy eV,1486.6,Acquisition Time s,2,
BE_F 1s 7,CPS_F 1s 7,F 1s_1_F 1s 7,Background_F 1s 7,Envelope_F 1s 7
694.9,11228.5,11250.4,11228.5,11250.4
694.775,11332,11355.3,11332,11355.3
694.65,11367,11391.9,11367,11391.9
694.525,11356,11382.6,11356,11382.6
694.4,11375.5,11403.9,11375.5,11403.9
694.275,11217.5,11248,11217.5,11248
694.15,11176,11208.7,11176,11208.7
694.025,11163,11198.2,11163,11198.2
693.9,11239.5,11277.4,11239.5,11277.4
693.775,11118,11159,11118,11159
693.65,11257.5,11301.8,11257.5,11301.8
693.525,11173.5,11221.6,11173.5,11221.6
693.4,11199,11251.3,11199,11251.3
693.275,11124,11181,11124,11181
693.15,11244.5,11306.8,11244.5,11306.8
693.025,11209,11277.2,11209,11277.2
692.9,11150,11225,11150,11225
692.775,11147,11229.8,11147,11229.8
692.65,11030.5,11122.2,11030.5,11122.2
692.525,11243,11344.9,11243,11344.9
692.4,11171.5,11339.9,11226,11339.9
692.275,11263.5,11353.8,11226,11353.8
692.15,11161.5,11370.2,11226.1,11370.2
692.025,11354.5,11389.8,11226.1,11389.8
691.9,11274.5,11413.2,11226.1,11413.2
691.775,11367.5,11441.8,11226.2,11441.8
691.65,11483.5,11477,11226.3,11477
691.525,11224.5,11520.9,11226.3,11520.9
691.4,11515,11576.8,11226.4,11576.8
691.275,11453,11648.8,11226.5,11648.8
691.15,11592.5,11743.2,11226.7,11743.2
691.025,11707.5,11868,11226.9,11868
690.9,11821,12035.3,11227.1,12035.3
690.775,12174.5,12260.5,11227.5,12260.5
690.65,12380,12564.7,11228,12564.7
690.525,13006.5,12974.5,11228.7,12974.5
690.4,13447.5,13521.9,11229.6,13521.9
690.275,14239,14245.3,11230.8,14245.3
690.15,15216.5,15183.8,11232.4,15183.8
690.025,16321,16380,11234.5,16380
689.9,17726.5,17864,11237.2,17864
689.775,19837.5,19660.1,11240.7,19660.1
689.65,21874,21763.2,11245,21763.2
689.525,24249.5,24144.8,11250.3,24144.8
689.4,26741.5,26738.2,11256.6,26738.2
689.275,29371,29440.8,11264,29440.8
689.15,32131.5,32117,11272.5,32117
689.025,34545,34608.2,11282,34608.2
688.9,36557,36743.2,11292.3,36743.2
688.775,38473.5,38370.2,11303.4,38370.2
688.65,39436.5,39354.2,11314.9,39354.2
688.525,39537.5,39622.8,11326.4,39622.8
688.4,39297.5,39148.7,11337.8,39148.7
688.275,38020,37975.2,11348.7,37975.2
688.15,36178.5,36197.1,11358.8,36197.1
688.025,33926.5,33951.7,11368,33951.7
687.9,31444,31403.5,11376.2,31403.5
687.775,28514,28717.6,11383.2,28717.6
687.65,25960,26048.4,11389.1,26048.4
687.525,23395,23523.3,11394,23523.3
687.4,21167,21231.3,11398,21231.3
687.275,19242.5,19229.7,11401.2,19229.7
687.15,17647.5,17537.6,11403.7,17537.6
687.025,16299.5,16150,11405.7,16150
686.9,15319.5,15042.2,11407.3,15042.2
686.775,14303.5,14176.8,11408.5,14176.8
686.65,13609,13515.1,11409.4,13515.1
686.525,13055,13015.1,11410.1,13015.1
686.4,12772,12643.1,11410.6,12643.1
686.275,12540,12366.7,11411.1,12366.7
686.15,12231,12162.3,11411.4,12162.3
686.025,12010,12010.2,11411.7,12010.2
685.9,11788.5,11896.2,11411.8,11896.2
685.775,11624,11809.8,11411.9,11809.8
685.65,11639.5,11743.5,11412,11743.5
685.525,11712,11691.9,11412.1,11691.9
685.4,11553.5,11651.1,11412.2,11651.1
685.275,11318.5,11618.3,11412.2,11618.3
685.15,11405.5,11591.5,11412.2,11591.5
685.025,11436,11569.5,11412.2,11569.5
684.9,11337,11551,11412.3,11551
684.775,11221.5,11535.5,11412.3,11535.5
684.65,11416.5,11522.3,11412.3,11522.3
684.525,11420.5,11510.9,11412.3,11510.9
684.4,11400,11488.8,11400,11488.8
684.275,11142,11222.3,11142,11222.3
684.15,11376,11448.8,11376,11448.8
684.025,11232,11298.3,11232,11298.3
683.9,11427.5,11488,11427.5,11488
