,,,
,,,
Characteristic Energy eV,1486.6,Acquisition Time s,
BE_Sur1 1,CPS_Sur1 1,Background_Sur1 1,
1349.4,25588.2,25588.2,
1349,25541.2,25541.2,
1348.6,25811.8,25811.8,
1348.2,25705.9,25705.9,
1347.8,25785.3,25785.3,
1347.4,25638.2,25638.2,
1347,25773.5,25773.5,
1346.6,25744.1,25744.1,
1346.2,25632.4,25632.4,
1345.8,25641.2,25641.2,
1345.4,25508.8,25508.8,
1345,25576.5,25576.5,
1344.6,25079.4,25079.4,
1344.2,25370.6,25370.6,
1343.8,25364.7,25364.7,
1343.4,25379.4,25379.4,
1343,25450,25450,
1342.6,25482.4,25482.4,
1342.2,25170.6,25170.6,
1341.8,25135.3,25135.3,
1341.4,25438.2,25438.2,
1341,25317.6,25317.6,
1340.6,25526.5,25526.5,
1340.2,25197.1,25197.1,
1339.8,25088.2,25088.2,
1339.4,25097.1,25097.1,
1339,25014.7,25014.7,
1338.6,25382.4,25382.4,
1338.2,24923.5,24923.5,
1337.8,25102.9,25102.9,
1337.4,24576.5,24576.5,
1337,24794.1,24794.1,
1336.6,24732.4,24732.4,
1336.2,24444.1,24444.1,
1335.8,24835.3,24835.3,
1335.4,24220.6,24220.6,
1335,24482.4,24482.4,
1334.6,24355.9,24355.9,
1334.2,24088.2,24088.2,
1333.8,24429.4,24429.4,
1333.4,24035.3,24035.3,
1333,24500,24500,
1332.6,24044.1,24044.1,
1332.2,23835.3,23835.3,
1331.8,24061.8,24061.8,
1331.4,23717.6,23717.6,
1331,23782.4,23782.4,
1330.6,23705.9,23705.9,
1330.2,23997.1,23997.1,
1329.8,23682.4,23682.4,
1329.4,23700,23700,
1329,24126.5,24126.5,
1328.6,24017.6,24017.6,
1328.2,23941.2,23941.2,
1327.8,23458.8,23458.8,
1327.4,23441.2,23441.2,
1327,24085.3,24085.3,
1326.6,23123.5,23123.5,
1326.2,23905.9,23905.9,
1325.8,23417.6,23417.6,
1325.4,23550,23550,
1325,23411.8,23411.8,
1324.6,23602.9,23602.9,
1324.2,23482.4,23482.4,
1323.8,24244.1,24244.1,
1323.4,23414.7,23414.7,
1323,23288.2,23288.2,
1322.6,23823.5,23823.5,
1322.2,23285.3,23285.3,
1321.8,23788.2,23788.2,
1321.4,23873.5,23873.5,
1321,23405.9,23405.9,
1320.6,23611.8,23611.8,
1320.2,23708.8,23708.8,
1319.8,23220.6,23220.6,
1319.4,23326.5,23326.5,
1319,23038.2,23038.2,
1318.6,23408.8,23408.8,
1318.2,23508.8,23508.8,
1317.8,23982.4,23982.4,
1317.4,23258.8,23258.8,
1317,24208.8,24208.8,
1316.6,23429.4,23429.4,
1316.2,23552.9,23552.9,
1315.8,23935.3,23935.3,
1315.4,22985.3,22985.3,
1315,23852.9,23852.9,
1314.6,23567.6,23567.6,
1314.2,23455.9,23455.9,
1313.8,23850,23850,
1313.4,23508.8,23508.8,
1313,23350,23350,
1312.6,23579.4,23579.4,
1312.2,23135.3,23135.3,
1311.8,23808.8,23808.8,
1311.4,23573.5,23573.5,
1311,23811.8,23811.8,
1310.6,23367.6,23367.6,
1310.2,23858.8,23858.8,
1309.8,23947.1,23947.1,
1309.4,23758.8,23758.8,
1309,23302.9,23302.9,
1308.6,23317.6,23317.6,
1308.2,23129.4,23129.4,
1307.8,23411.8,23411.8,
1307.4,23505.9,23505.9,
1307,23776.5,23776.5,
1306.6,23344.1,23344.1,
1306.2,23691.2,23691.2,
1305.8,23379.4,23379.4,
1305.4,23997.1,23997.1,
1305,23164.7,23164.7,
1304.6,23723.5,23723.5,
1304.2,23791.2,23791.2,
1303.8,23720.6,23720.6,
1303.4,23297.1,23297.1,
1303,23029.4,23029.4,
1302.6,22882.4,22882.4,
1302.2,23476.5,23476.5,
1301.8,23420.6,23420.6,
1301.4,22850,22850,
1301,23382.4,23382.4,
1300.6,23235.3,23235.3,
1300.2,23761.8,23761.8,
1299.8,23747.1,23747.1,
1299.4,23285.3,23285.3,
1299,23167.6,23167.6,
1298.6,23767.6,23767.6,
1298.2,23497.1,23497.1,
1297.8,23485.3,23485.3,
1297.4,23270.6,23270.6,
1297,24229.4,24229.4,
1296.6,23355.9,23355.9,
1296.2,23855.9,23855.9,
1295.8,23614.7,23614.7,
1295.4,23791.2,23791.2,
1295,23617.6,23617.6,
1294.6,23294.1,23294.1,
1294.2,23823.5,23823.5,
1293.8,23850,23850,
1293.4,23823.5,23823.5,
1293,23373.5,23373.5,
1292.6,23138.2,23138.2,
1292.2,23417.6,23417.6,
1291.8,23720.6,23720.6,
1291.4,23600,23600,
1291,24341.2,24341.2,
1290.6,23714.7,23714.7,
1290.2,23673.5,23673.5,
1289.8,23770.6,23770.6,
1289.4,23123.5,23123.5,
1289,23520.6,23520.6,
1288.6,23632.4,23632.4,
1288.2,23573.5,23573.5,
1287.8,23491.2,23491.2,
1287.4,23858.8,23858.8,
1287,23520.6,23520.6,
1286.6,24032.4,24032.4,
1286.2,23602.9,23602.9,
1285.8,23729.4,23729.4,
1285.4,23682.4,23682.4,
1285,23832.4,23832.4,
1284.6,24108.8,24108.8,
1284.2,23726.5,23726.5,
1283.8,24014.7,24014.7,
1283.4,23797.1,23797.1,
1283,24350,24350,
1282.6,23870.6,23870.6,
1282.2,23861.8,23861.8,
1281.8,23979.4,23979.4,
1281.4,23891.2,23891.2,
1281,24000,24000,
1280.6,23908.8,23908.8,
1280.2,24017.6,24017.6,
1279.8,24147.1,24147.1,
1279.4,24238.2,24238.2,
1279,23811.8,23811.8,
1278.6,23867.6,23867.6,
1278.2,24538.2,24538.2,
1277.8,24150,24150,
1277.4,24361.8,24361.8,
1277,24173.5,24173.5,
1276.6,23991.2,23991.2,
1276.2,24558.8,24558.8,
1275.8,23832.4,23832.4,
1275.4,24167.6,24167.6,
1275,24208.8,24208.8,
1274.6,24573.5,24573.5,
1274.2,24179.4,24179.4,
1273.8,24023.5,24023.5,
1273.4,23847.1,23847.1,
1273,24223.5,24223.5,
1272.6,24650,24650,
1272.2,24341.2,24341.2,
1271.8,24191.2,24191.2,
1271.4,24335.3,24335.3,
1271,23941.2,23941.2,
1270.6,24405.9,24405.9,
1270.2,24329.4,24329.4,
1269.8,23955.9,23955.9,
1269.4,24223.5,24223.5,
1269,24488.2,24488.2,
1268.6,24570.6,24570.6,
1268.2,24047.1,24047.1,
1267.8,24023.5,24023.5,
1267.4,24073.5,24073.5,
1267,24602.9,24602.9,
1266.6,24726.5,24726.5,
1266.2,24235.3,24235.3,
1265.8,24958.8,24958.8,
1265.4,25197.1,25197.1,
1265,24570.6,24570.6,
1264.6,24611.8,24611.8,
1264.2,24585.3,24585.3,
1263.8,24594.1,24594.1,
1263.4,24773.5,24773.5,
1263,24405.9,24405.9,
1262.6,24764.7,24764.7,
1262.2,24782.4,24782.4,
1261.8,24776.5,24776.5,
1261.4,25261.8,25261.8,
1261,24132.4,24132.4,
1260.6,24570.6,24570.6,
1260.2,24897.1,24897.1,
1259.8,25223.5,25223.5,
1259.4,25232.4,25232.4,
1259,24791.2,24791.2,
1258.6,24873.5,24873.5,
1258.2,24955.9,24955.9,
1257.8,25082.4,25082.4,
1257.4,24882.4,24882.4,
1257,25032.4,25032.4,
1256.6,25029.4,25029.4,
1256.2,25470.6,25470.6,
1255.8,25232.4,25232.4,
1255.4,24900,24900,
1255,24991.2,24991.2,
1254.6,24973.5,24973.5,
1254.2,25214.7,25214.7,
1253.8,25038.2,25038.2,
1253.4,24852.9,24852.9,
1253,24708.8,24708.8,
1252.6,25194.1,25194.1,
1252.2,24758.8,24758.8,
1251.8,25650,25650,
1251.4,25808.8,25808.8,
1251,25464.7,25464.7,
1250.6,25273.5,25273.5,
1250.2,25270.6,25270.6,
1249.8,25344.1,25344.1,
1249.4,26047.1,26047.1,
1249,25711.8,25711.8,
1248.6,25626.5,25626.5,
1248.2,25605.9,25605.9,
1247.8,25188.2,25188.2,
1247.4,25452.9,25452.9,
1247,25467.6,25467.6,
1246.6,25873.5,25873.5,
1246.2,25994.1,25994.1,
1245.8,25691.2,25691.2,
1245.4,25588.2,25588.2,
1245,25673.5,25673.5,
1244.6,25791.2,25791.2,
1244.2,25705.9,25705.9,
1243.8,25455.9,25455.9,
1243.4,25570.6,25570.6,
1243,25532.4,25532.4,
1242.6,25923.5,25923.5,
1242.2,26270.6,26270.6,
1241.8,25664.7,25664.7,
1241.4,25970.6,25970.6,
1241,25785.3,25785.3,
1240.6,26088.2,26088.2,
1240.2,25952.9,25952.9,
1239.8,26526.5,26526.5,
1239.4,26723.5,26723.5,
1239,25438.2,25438.2,
1238.6,26285.3,26285.3,
1238.2,26405.9,26405.9,
1237.8,25847.1,25847.1,
1237.4,26241.2,26241.2,
1237,25882.4,25882.4,
1236.6,26079.4,26079.4,
1236.2,26376.5,26376.5,
1235.8,25994.1,25994.1,
1235.4,26173.5,26173.5,
1235,26217.6,26217.6,
1234.6,26138.2,26138.2,
1234.2,26020.6,26020.6,
1233.8,26100,26100,
1233.4,26329.4,26329.4,
1233,26208.8,26208.8,
1232.6,26323.5,26323.5,
1232.2,26917.6,26917.6,
1231.8,26976.5,26976.5,
1231.4,26502.9,26502.9,
1231,27538.2,27538.2,
1230.6,27250,27250,
1230.2,27367.6,27367.6,
1229.8,27432.4,27432.4,
1229.4,27173.5,27173.5,
1229,27805.9,27805.9,
1228.6,27376.5,27376.5,
1228.2,27961.8,27961.8,
1227.8,27714.7,27714.7,
1227.4,27970.6,27970.6,
1227,27402.9,27402.9,
1226.6,28076.5,28076.5,
1226.2,27694.1,27694.1,
1225.8,28014.7,28014.7,
1225.4,27876.5,27876.5,
1225,27567.6,27567.6,
1224.6,28029.4,28029.4,
1224.2,27082.4,27082.4,
1223.8,27376.5,27376.5,
1223.4,27267.6,27267.6,
1223,27476.5,27476.5,
1222.6,27532.4,27532.4,
1222.2,27567.6,27567.6,
1221.8,27305.9,27305.9,
1221.4,27155.9,27155.9,
1221,27497.1,27497.1,
1220.6,26905.9,26905.9,
1220.2,27173.5,27173.5,
1219.8,27044.1,27044.1,
1219.4,26917.6,26917.6,
1219,26167.6,26167.6,
1218.6,26420.6,26420.6,
1218.2,25870.6,25870.6,
1217.8,26161.8,26161.8,
1217.4,25858.8,25858.8,
1217,25605.9,25605.9,
1216.6,24802.9,24802.9,
1216.2,25535.3,25535.3,
1215.8,25088.2,25088.2,
1215.4,24950,24950,
1215,24914.7,24914.7,
1214.6,25261.8,25261.8,
1214.2,24838.2,24838.2,
1213.8,24705.9,24705.9,
1213.4,24994.1,24994.1,
1213,24823.5,24823.5,
1212.6,24829.4,24829.4,
1212.2,24408.8,24408.8,
1211.8,24600,24600,
1211.4,24467.6,24467.6,
1211,24638.2,24638.2,
1210.6,24188.2,24188.2,
1210.2,24579.4,24579.4,
1209.8,24447.1,24447.1,
1209.4,24767.6,24767.6,
1209,25194.1,25194.1,
1208.6,24597.1,24597.1,
1208.2,24329.4,24329.4,
1207.8,25100,25100,
1207.4,24747.1,24747.1,
1207,24661.8,24661.8,
1206.6,24373.5,24373.5,
1206.2,24414.7,24414.7,
1205.8,25161.8,25161.8,
1205.4,24841.2,24841.2,
1205,25144.1,25144.1,
1204.6,24220.6,24220.6,
1204.2,25088.2,25088.2,
1203.8,24714.7,24714.7,
1203.4,24885.3,24885.3,
1203,24961.8,24961.8,
1202.6,24717.6,24717.6,
1202.2,24720.6,24720.6,
1201.8,24941.2,24941.2,
1201.4,24850,24850,
1201,24935.3,24935.3,
1200.6,25026.5,25026.5,
1200.2,24611.8,24611.8,
1199.8,24879.4,24879.4,
1199.4,25085.3,25085.3,
1199,25017.6,25017.6,
1198.6,25038.2,25038.2,
1198.2,24935.3,24935.3,
1197.8,25682.4,25682.4,
1197.4,24676.5,24676.5,
1197,25023.5,25023.5,
1196.6,24952.9,24952.9,
1196.2,24800,24800,
1195.8,25179.4,25179.4,
1195.4,25400,25400,
1195,25355.9,25355.9,
1194.6,25111.8,25111.8,
1194.2,25779.4,25779.4,
1193.8,25300,25300,
1193.4,25385.3,25385.3,
1193,25776.5,25776.5,
1192.6,25220.6,25220.6,
1192.2,25005.9,25005.9,
1191.8,25026.5,25026.5,
1191.4,25205.9,25205.9,
1191,25405.9,25405.9,
1190.6,25197.1,25197.1,
1190.2,25555.9,25555.9,
1189.8,25352.9,25352.9,
1189.4,25205.9,25205.9,
1189,25650,25650,
1188.6,25400,25400,
1188.2,25638.2,25638.2,
1187.8,24920.6,24920.6,
1187.4,25552.9,25552.9,
1187,25182.4,25182.4,
1186.6,24676.5,24676.5,
1186.2,25511.8,25511.8,
1185.8,25517.6,25517.6,
1185.4,26200,26200,
1185,25473.5,25473.5,
1184.6,25479.4,25479.4,
1184.2,25391.2,25391.2,
1183.8,25929.4,25929.4,
1183.4,25285.3,25285.3,
1183,26064.7,26064.7,
1182.6,25450,25450,
1182.2,25917.6,25917.6,
1181.8,26173.5,26173.5,
1181.4,26267.6,26267.6,
1181,26255.9,26255.9,
1180.6,26305.9,26305.9,
1180.2,25232.4,25232.4,
1179.8,25720.6,25720.6,
1179.4,26176.5,26176.5,
1179,26000,26000,
1178.6,25920.6,25920.6,
1178.2,26164.7,26164.7,
1177.8,26070.6,26070.6,
1177.4,26323.5,26323.5,
1177,26455.9,26455.9,
1176.6,26414.7,26414.7,
1176.2,26494.1,26494.1,
1175.8,26288.2,26288.2,
1175.4,25844.1,25844.1,
1175,26579.4,26579.4,
1174.6,26244.1,26244.1,
1174.2,25882.4,25882.4,
1173.8,26276.5,26276.5,
1173.4,26126.5,26126.5,
1173,26282.4,26282.4,
1172.6,26785.3,26785.3,
1172.2,26558.8,26558.8,
1171.8,25935.3,25935.3,
1171.4,26852.9,26852.9,
1171,26388.2,26388.2,
1170.6,26764.7,26764.7,
1170.2,26329.4,26329.4,
1169.8,26447.1,26447.1,
1169.4,26500,26500,
1169,26411.8,26411.8,
1168.6,27047.1,27047.1,
1168.2,26555.9,26555.9,
1167.8,26794.1,26794.1,
1167.4,26517.6,26517.6,
1167,26597.1,26597.1,
1166.6,26732.4,26732.4,
1166.2,26947.1,26947.1,
1165.8,26485.3,26485.3,
1165.4,26438.2,26438.2,
1165,26355.9,26355.9,
1164.6,27079.4,27079.4,
1164.2,26773.5,26773.5,
1163.8,26576.5,26576.5,
1163.4,26800,26800,
1163,27088.2,27088.2,
1162.6,27355.9,27355.9,
1162.2,27158.8,27158.8,
1161.8,27644.1,27644.1,
1161.4,26791.2,26791.2,
1161,26935.3,26935.3,
1160.6,27329.4,27329.4,
1160.2,26832.4,26832.4,
1159.8,27408.8,27408.8,
1159.4,27647.1,27647.1,
1159,27194.1,27194.1,
1158.6,27452.9,27452.9,
1158.2,27420.6,27420.6,
1157.8,27364.7,27364.7,
1157.4,27476.5,27476.5,
1157,27382.4,27382.4,
1156.6,27038.2,27038.2,
1156.2,27214.7,27214.7,
1155.8,27788.2,27788.2,
1155.4,27988.2,27988.2,
1155,27608.8,27608.8,
1154.6,27273.5,27273.5,
1154.2,27950,27950,
1153.8,27350,27350,
1153.4,28264.7,28264.7,
1153,27064.7,27064.7,
1152.6,27335.3,27335.3,
1152.2,27497.1,27497.1,
1151.8,27973.5,27973.5,
1151.4,27744.1,27744.1,
1151,27673.5,27673.5,
1150.6,27738.2,27738.2,
1150.2,27508.8,27508.8,
1149.8,27873.5,27873.5,
1149.4,28141.2,28141.2,
1149,27502.9,27502.9,
1148.6,27655.9,27655.9,
1148.2,28244.1,28244.1,
1147.8,28123.5,28123.5,
1147.4,28597.1,28597.1,
1147,28100,28100,
1146.6,28385.3,28385.3,
1146.2,28020.6,28020.6,
1145.8,28682.4,28682.4,
1145.4,28235.3,28235.3,
1145,28482.4,28482.4,
1144.6,28385.3,28385.3,
1144.2,27879.4,27879.4,
1143.8,28691.2,28691.2,
1143.4,28552.9,28552.9,
1143,28705.9,28705.9,
1142.6,28905.9,28905.9,
1142.2,27932.4,27932.4,
1141.8,28464.7,28464.7,
1141.4,28435.3,28435.3,
1141,28476.5,28476.5,
1140.6,28323.5,28323.5,
1140.2,28458.8,28458.8,
1139.8,28826.5,28826.5,
1139.4,28585.3,28585.3,
1139,29344.1,29344.1,
1138.6,28858.8,28858.8,
1138.2,28882.4,28882.4,
1137.8,28600,28600,
1137.4,28944.1,28944.1,
1137,28852.9,28852.9,
1136.6,29432.4,29432.4,
1136.2,28923.5,28923.5,
1135.8,28776.5,28776.5,
1135.4,28670.6,28670.6,
1135,28794.1,28794.1,
1134.6,28902.9,28902.9,
1134.2,29420.6,29420.6,
1133.8,29091.2,29091.2,
1133.4,29188.2,29188.2,
1133,28991.2,28991.2,
1132.6,28858.8,28858.8,
1132.2,28729.4,28729.4,
1131.8,29844.1,29844.1,
1131.4,29502.9,29502.9,
1131,29511.8,29511.8,
1130.6,29247.1,29247.1,
1130.2,29464.7,29464.7,
1129.8,29150,29150,
1129.4,30173.5,30173.5,
1129,29635.3,29635.3,
1128.6,30132.4,30132.4,
1128.2,29867.6,29867.6,
1127.8,29408.8,29408.8,
1127.4,29908.8,29908.8,
1127,29935.3,29935.3,
1126.6,29347.1,29347.1,
1126.2,29738.2,29738.2,
1125.8,29644.1,29644.1,
1125.4,30041.2,30041.2,
1125,29470.6,29470.6,
1124.6,30085.3,30085.3,
1124.2,30255.9,30255.9,
1123.8,30535.3,30535.3,
1123.4,29644.1,29644.1,
1123,30044.1,30044.1,
1122.6,30002.9,30002.9,
1122.2,29911.8,29911.8,
1121.8,29438.2,29438.2,
1121.4,30044.1,30044.1,
1121,30014.7,30014.7,
1120.6,30141.2,30141.2,
1120.2,29573.5,29573.5,
1119.8,29626.5,29626.5,
1119.4,29617.6,29617.6,
1119,29838.2,29838.2,
1118.6,30350,30350,
1118.2,30417.6,30417.6,
1117.8,30061.8,30061.8,
1117.4,30176.5,30176.5,
1117,30038.2,30038.2,
1116.6,30405.9,30405.9,
1116.2,30144.1,30144.1,
1115.8,30355.9,30355.9,
1115.4,29820.6,29820.6,
1115,30655.9,30655.9,
1114.6,30450,30450,
1114.2,30223.5,30223.5,
1113.8,30429.4,30429.4,
1113.4,30444.1,30444.1,
1113,30376.5,30376.5,
1112.6,30508.8,30508.8,
1112.2,30788.2,30788.2,
1111.8,30858.8,30858.8,
1111.4,30588.2,30588.2,
1111,30567.6,30567.6,
1110.6,30352.9,30352.9,
1110.2,30614.7,30614.7,
1109.8,31185.3,31185.3,
1109.4,30729.4,30729.4,
1109,31211.8,31211.8,
1108.6,30847.1,30847.1,
1108.2,31197.1,31197.1,
1107.8,31491.2,31491.2,
1107.4,31485.3,31485.3,
1107,31041.2,31041.2,
1106.6,30626.5,30626.5,
1106.2,31150,31150,
1105.8,31305.9,31305.9,
1105.4,30552.9,30552.9,
1105,31350,31350,
1104.6,31194.1,31194.1,
1104.2,31088.2,31088.2,
1103.8,31382.4,31382.4,
1103.4,30714.7,30714.7,
1103,31179.4,31179.4,
1102.6,31673.5,31673.5,
1102.2,30961.8,30961.8,
1101.8,31164.7,31164.7,
1101.4,31385.3,31385.3,
1101,30497.1,30497.1,
1100.6,31394.1,31394.1,
1100.2,31600,31600,
1099.8,31338.2,31338.2,
1099.4,30985.3,30985.3,
1099,31144.1,31144.1,
1098.6,30914.7,30914.7,
1098.2,30608.8,30608.8,
1097.8,31452.9,31452.9,
1097.4,31000,31000,
1097,31138.2,31138.2,
1096.6,31129.4,31129.4,
1096.2,31658.8,31658.8,
1095.8,31014.7,31014.7,
1095.4,30714.7,30714.7,
1095,31564.7,31564.7,
1094.6,30644.1,30644.1,
1094.2,31620.6,31620.6,
1093.8,30729.4,30729.4,
1093.4,31594.1,31594.1,
1093,31641.2,31641.2,
1092.6,30985.3,30985.3,
1092.2,31458.8,31458.8,
1091.8,31626.5,31626.5,
1091.4,31685.3,31685.3,
1091,31508.8,31508.8,
1090.6,31235.3,31235.3,
1090.2,31088.2,31088.2,
1089.8,31194.1,31194.1,
1089.4,32055.9,32055.9,
1089,30941.2,30941.2,
1088.6,31694.1,31694.1,
1088.2,31520.6,31520.6,
1087.8,31470.6,31470.6,
1087.4,31173.5,31173.5,
1087,31682.4,31682.4,
1086.6,31223.5,31223.5,
1086.2,31355.9,31355.9,
1085.8,31529.4,31529.4,
1085.4,31485.3,31485.3,
1085,31711.8,31711.8,
1084.6,31241.2,31241.2,
1084.2,31591.2,31591.2,
1083.8,31685.3,31685.3,
1083.4,31497.1,31497.1,
1083,32008.8,32008.8,
1082.6,31585.3,31585.3,
1082.2,32794.1,32794.1,
1081.8,32388.2,32388.2,
1081.4,31979.4,31979.4,
1081,31879.4,31879.4,
1080.6,32197.1,32197.1,
1080.2,31894.1,31894.1,
1079.8,32047.1,32047.1,
1079.4,32191.2,32191.2,
1079,32205.9,32205.9,
1078.6,31885.3,31885.3,
1078.2,31761.8,31761.8,
1077.8,31920.6,31920.6,
1077.4,32479.4,32479.4,
1077,32055.9,32055.9,
1076.6,32123.5,32123.5,
1076.2,31979.4,31979.4,
1075.8,31688.2,31688.2,
1075.4,31782.4,31782.4,
1075,32211.8,32211.8,
1074.6,32420.6,32420.6,
1074.2,32226.5,32226.5,
1073.8,31979.4,31979.4,
1073.4,32097.1,32105.2,
1073,32238.2,32110.1,
1072.6,32879.4,32138,
1072.2,33261.8,32178.9,
1071.8,34211.8,32252.9,
1071.4,34844.1,32347.2,
1071,36670.6,32504.5,
1070.6,36485.3,32649.3,
1070.2,35511.8,32753.5,
1069.8,34585.3,32820.2,
1069.4,34032.4,32864.3,
1069,32161.8,32891.8,
1068.6,33358.8,32908.8,
1068.2,33205.9,33205.9,
1067.8,32835.3,32835.3,
1067.4,33385.3,33385.3,
1067,32982.4,32982.4,
1066.6,33014.7,33014.7,
1066.2,32861.8,32861.8,
1065.8,33429.4,33429.4,
1065.4,33317.6,33317.6,
1065,32761.8,32761.8,
1064.6,33011.8,33011.8,
1064.2,33338.2,33338.2,
1063.8,32808.8,32808.8,
1063.4,33344.1,33344.1,
1063,33182.4,33182.4,
1062.6,33329.4,33329.4,
1062.2,33323.5,33323.5,
1061.8,33444.1,33444.1,
1061.4,33376.5,33376.5,
1061,33829.4,33829.4,
1060.6,33655.9,33655.9,
1060.2,33597.1,33597.1,
1059.8,33067.6,33067.6,
1059.4,33555.9,33555.9,
1059,33697.1,33697.1,
1058.6,33358.8,33358.8,
1058.2,33488.2,33488.2,
1057.8,33317.6,33317.6,
1057.4,33929.4,33929.4,
1057,33614.7,33614.7,
1056.6,33991.2,33991.2,
1056.2,33755.9,33755.9,
1055.8,33958.8,33958.8,
1055.4,33835.3,33835.3,
1055,34126.5,34126.5,
1054.6,33750,33750,
1054.2,33805.9,33805.9,
1053.8,34644.1,34644.1,
1053.4,33726.5,33726.5,
1053,33576.5,33576.5,
1052.6,33747.1,33747.1,
1052.2,34055.9,34055.9,
1051.8,34961.8,34961.8,
1051.4,33829.4,33829.4,
1051,33920.6,33920.6,
1050.6,33361.8,33361.8,
1050.2,34426.5,34426.5,
1049.8,34338.2,34338.2,
1049.4,34061.8,34061.8,
1049,34020.6,34020.6,
1048.6,34202.9,34202.9,
1048.2,34814.7,34814.7,
1047.8,33882.4,33882.4,
1047.4,34444.1,34444.1,
1047,34729.4,34729.4,
1046.6,34732.4,34732.4,
1046.2,34520.6,34520.6,
1045.8,35117.6,35117.6,
1045.4,35532.4,35532.4,
1045,35200,35200,
1044.6,35470.6,35470.6,
1044.2,35805.9,35805.9,
1043.8,35829.4,35829.4,
1043.4,35564.7,35564.7,
1043,35441.2,35441.2,
1042.6,34670.6,34670.6,
1042.2,34829.4,34829.4,
1041.8,34973.5,34973.5,
1041.4,35038.2,35038.2,
1041,35002.9,35002.9,
1040.6,35167.6,35167.6,
1040.2,35832.4,35832.4,
1039.8,34776.5,34776.5,
1039.4,34502.9,34502.9,
1039,35358.8,35358.8,
1038.6,35632.4,35632.4,
1038.2,34750,34750,
1037.8,34917.6,34917.6,
1037.4,35247.1,35247.1,
1037,35482.4,35482.4,
1036.6,35426.5,35426.5,
1036.2,35470.6,35470.6,
1035.8,35438.2,35438.2,
1035.4,35229.4,35229.4,
1035,35732.4,35732.4,
1034.6,35864.7,35864.7,
1034.2,35455.9,35455.9,
1033.8,34970.6,34970.6,
1033.4,35294.1,35294.1,
1033,35200,35200,
1032.6,35902.9,35902.9,
1032.2,35997.1,35997.1,
1031.8,35950,35950,
1031.4,35873.5,35873.5,
1031,35288.2,35288.2,
1030.6,36235.3,36235.3,
1030.2,35570.6,35570.6,
1029.8,35944.1,35944.1,
1029.4,35438.2,35438.2,
1029,35817.6,35817.6,
1028.6,35647.1,35647.1,
1028.2,36008.8,36008.8,
1027.8,36070.6,36070.6,
1027.4,35700,35700,
1027,35785.3,35785.3,
1026.6,36050,36050,
1026.2,36097.1,36097.1,
1025.8,36002.9,36002.9,
1025.4,36435.3,36435.3,
1025,35991.2,35991.2,
1024.6,36611.8,36611.8,
1024.2,36502.9,36579.2,
1023.8,36617.6,36580.1,
1023.4,36794.1,36585,
1023,37147.1,36597.7,
1022.6,37608.8,36620.7,
1022.2,38400,36661.1,
1021.8,38238.2,36696.9,
1021.4,39226.5,36754.3,
1021,38267.6,36788.6,
1020.6,37700,36809.3,
1020.2,37323.5,36821,
1019.8,36555.9,36827.3,
1019.4,36697.1,36830.4,
1019,37238.2,37238.2,
1018.6,36785.3,36785.3,
1018.2,37138.2,37138.2,
1017.8,36579.4,36579.4,
1017.4,37452.9,37452.9,
1017,37279.4,37279.4,
1016.6,36879.4,36879.4,
1016.2,36555.9,36555.9,
1015.8,36826.5,36826.5,
1015.4,37229.4,37229.4,
1015,36402.9,36402.9,
1014.6,37332.4,37332.4,
1014.2,37717.6,37717.6,
1013.8,36905.9,36905.9,
1013.4,37229.4,37229.4,
1013,36923.5,36923.5,
1012.6,37002.9,37002.9,
1012.2,37414.7,37414.7,
1011.8,37464.7,37464.7,
1011.4,36735.3,36735.3,
1011,37294.1,37294.1,
1010.6,36861.8,36861.8,
1010.2,37391.2,37391.2,
1009.8,37702.9,37702.9,
1009.4,37585.3,37585.3,
1009,37591.2,37591.2,
1008.6,37738.2,37738.2,
1008.2,38394.1,38394.1,
1007.8,37782.4,37782.4,
1007.4,38041.2,38041.2,
1007,38020.6,38020.6,
1006.6,38417.6,38417.6,
1006.2,37794.1,37794.1,
1005.8,38841.2,38841.2,
1005.4,38605.9,38605.9,
1005,38788.2,38788.2,
1004.6,38808.8,38808.8,
1004.2,38991.2,38991.2,
1003.8,39294.1,39294.1,
1003.4,39100,39100,
1003,39476.5,39476.5,
1002.6,38547.1,38547.1,
1002.2,39420.6,39420.6,
1001.8,39255.9,39255.9,
1001.4,39217.6,39217.6,
1001,39529.4,39529.4,
1000.6,38817.6,38817.6,
1000.2,39047.1,39047.1,
999.8,39602.9,39602.9,
999.4,39173.5,39173.5,
999,38976.5,38976.5,
998.6,38938.2,38938.2,
998.2,38611.8,38611.8,
997.8,39400,39400,
997.4,38405.9,38405.9,
997,39117.6,39117.6,
996.6,39141.2,39141.2,
996.2,38726.5,38726.5,
995.8,39370.6,39370.6,
995.4,39176.5,39176.5,
995,39570.6,39570.6,
994.6,38608.8,38608.8,
994.2,38832.4,38832.4,
993.8,38991.2,38991.2,
993.4,39223.5,39223.5,
993,38952.9,38952.9,
992.6,38473.5,38473.5,
992.2,39373.5,39373.5,
991.8,38673.5,38673.5,
991.4,38829.4,38829.4,
991,39255.9,39255.9,
990.6,38073.5,38073.5,
990.2,38864.7,38864.7,
989.8,38964.7,38964.7,
989.4,38547.1,38547.1,
989,38526.5,38526.5,
988.6,39052.9,39052.9,
988.2,39235.3,39235.3,
987.8,39091.2,39091.2,
987.4,39202.9,39202.9,
987,38788.2,38788.2,
986.6,38697.1,38697.1,
986.2,38429.4,38429.4,
985.8,38555.9,38555.9,
985.4,38652.9,38652.9,
985,39255.9,39255.9,
984.6,38750,38750,
984.2,39023.5,39023.5,
983.8,39058.8,39058.8,
983.4,39308.8,39308.8,
983,39817.6,39817.6,
982.6,40388.2,40388.2,
982.2,40311.8,40311.8,
981.8,40470.6,40470.6,
981.4,40702.9,40702.9,
981,41138.2,41138.2,
980.6,41032.4,41032.4,
980.2,42079.4,42079.4,
979.8,41173.5,41173.5,
979.4,42091.2,42091.2,
979,41488.2,41488.2,
978.6,42894.1,42894.1,
978.2,42367.6,42367.6,
977.8,42488.2,42488.2,
977.4,42858.8,42858.8,
977,43191.2,43191.2,
976.6,42276.5,42276.5,
976.2,42250,42250,
975.8,42447.1,42447.1,
975.4,41811.8,41811.8,
975,42158.8,42158.8,
974.6,40979.4,40979.4,
974.2,41255.9,41255.9,
973.8,41338.2,41338.2,
973.4,41317.6,41317.6,
973,40752.9,40752.9,
972.6,40452.9,40452.9,
972.2,40814.7,40814.7,
971.8,40420.6,40420.6,
971.4,40258.8,40258.8,
971,39805.9,39805.9,
970.6,39611.8,39611.8,
970.2,39035.3,39035.3,
969.8,39273.5,39273.5,
969.4,38964.7,38964.7,
969,39429.4,39429.4,
968.6,38861.8,38861.8,
968.2,38932.4,38932.4,
967.8,38164.7,38164.7,
967.4,38135.3,38135.3,
967,38579.4,38579.4,
966.6,38908.8,38908.8,
966.2,38547.1,38547.1,
965.8,38288.2,38288.2,
965.4,37950,37950,
965,37635.3,37635.3,
964.6,37558.8,37558.8,
964.2,37897.1,37897.1,
963.8,37905.9,37905.9,
963.4,38244.1,38244.1,
963,38788.2,38788.2,
962.6,38576.5,38576.5,
962.2,37861.8,37861.8,
961.8,38505.9,38505.9,
961.4,38200,38200,
961,38270.6,38270.6,
960.6,38455.9,38455.9,
960.2,38620.6,38620.6,
959.8,38332.4,38332.4,
959.4,38258.8,38258.8,
959,38370.6,38370.6,
958.6,38570.6,38570.6,
958.2,38002.9,38002.9,
957.8,38252.9,38252.9,
957.4,39141.2,39141.2,
957,38588.2,38588.2,
956.6,38923.5,38923.5,
956.2,38270.6,38270.6,
955.8,38797.1,38797.1,
955.4,38552.9,38552.9,
955,38938.2,38938.2,
954.6,38944.1,38944.1,
954.2,39435.3,39435.3,
953.8,38511.8,38511.8,
953.4,39341.2,39341.2,
953,39041.2,39041.2,
952.6,39332.4,39332.4,
952.2,38952.9,38952.9,
951.8,38694.1,38694.1,
951.4,38714.7,38714.7,
951,38670.6,38670.6,
950.6,39370.6,39370.6,
950.2,39714.7,39714.7,
949.8,38920.6,38920.6,
949.4,39564.7,39564.7,
949,39682.4,39682.4,
948.6,38811.8,38811.8,
948.2,39461.8,39461.8,
947.8,39658.8,39658.8,
947.4,39711.8,39711.8,
947,39388.2,39388.2,
946.6,39617.6,39617.6,
946.2,39179.4,39179.4,
945.8,39505.9,39505.9,
945.4,39538.2,39538.2,
945,39717.6,39717.6,
944.6,38902.9,38902.9,
944.2,39388.2,39388.2,
943.8,39476.5,39476.5,
943.4,39611.8,39611.8,
943,39547.1,39547.1,
942.6,39576.5,39576.5,
942.2,39400,39400,
941.8,39732.4,39732.4,
941.4,40061.8,40061.8,
941,39982.4,39982.4,
940.6,40070.6,40070.6,
940.2,40088.2,40088.2,
939.8,40517.6,40517.6,
939.4,39920.6,39920.6,
939,39979.4,39979.4,
938.6,39926.5,39926.5,
938.2,39438.2,39438.2,
937.8,39641.2,39641.2,
937.4,39670.6,39670.6,
937,40350,40350,
936.6,40514.7,40514.7,
936.2,40088.2,40088.2,
935.8,40667.6,40667.6,
935.4,40438.2,40438.2,
935,40652.9,40652.9,
934.6,40811.8,40811.8,
934.2,40764.7,40764.7,
933.8,40517.6,40517.6,
933.4,40932.4,40932.4,
933,40144.1,40144.1,
932.6,40261.8,40261.8,
932.2,41467.6,41467.6,
931.8,40958.8,40958.8,
931.4,41017.6,41017.6,
931,40647.1,40647.1,
930.6,41008.8,41008.8,
930.2,41114.7,41114.7,
929.8,41170.6,41170.6,
929.4,41044.1,41044.1,
929,40835.3,40835.3,
928.6,41223.5,41223.5,
928.2,41294.1,41294.1,
927.8,41182.4,41182.4,
927.4,41138.2,41138.2,
927,40938.2,40938.2,
926.6,41885.3,41885.3,
926.2,41094.1,41094.1,
925.8,41838.2,41838.2,
925.4,41850,41850,
925,41435.3,41435.3,
924.6,41329.4,41329.4,
924.2,42047.1,42047.1,
923.8,41408.8,41408.8,
923.4,41673.5,41673.5,
923,41820.6,41820.6,
922.6,42450,42450,
922.2,41682.4,41682.4,
921.8,40982.4,40982.4,
921.4,41741.2,41741.2,
921,41464.7,41464.7,
920.6,41961.8,41961.8,
920.2,41747.1,41747.1,
919.8,40979.4,40979.4,
919.4,42155.9,42155.9,
919,42111.8,42111.8,
918.6,42073.5,42073.5,
918.2,42276.5,42276.5,
917.8,42079.4,42079.4,
917.4,41697.1,41697.1,
917,42267.6,42267.6,
916.6,41920.6,41920.6,
916.2,41900,41900,
915.8,41647.1,41647.1,
915.4,42511.8,42511.8,
915,42473.5,42473.5,
914.6,41926.5,41926.5,
914.2,42650,42650,
913.8,42841.2,42841.2,
913.4,42985.3,42985.3,
913,42567.6,42567.6,
912.6,42141.2,42141.2,
912.2,42894.1,42894.1,
911.8,42823.5,42823.5,
911.4,42770.6,42770.6,
911,42600,42600,
910.6,43276.5,43276.5,
910.2,43132.4,43132.4,
909.8,43061.8,43061.8,
909.4,43194.1,43194.1,
909,42641.2,42641.2,
908.6,42514.7,42514.7,
908.2,43300,43300,
907.8,42550,42550,
907.4,43161.8,43161.8,
907,43052.9,43052.9,
906.6,43235.3,43235.3,
906.2,43479.4,43479.4,
905.8,43426.5,43426.5,
905.4,43829.4,43829.4,
905,43700,43700,
904.6,43235.3,43235.3,
904.2,43805.9,43805.9,
903.8,43167.6,43167.6,
903.4,42955.9,42955.9,
903,43508.8,43508.8,
902.6,43202.9,43202.9,
902.2,43247.1,43247.1,
901.8,43350,43350,
901.4,43370.6,43370.6,
901,43632.4,43632.4,
900.6,43864.7,43864.7,
900.2,44138.2,44138.2,
899.8,43582.4,43582.4,
899.4,43844.1,43844.1,
899,44279.4,44279.4,
898.6,43879.4,43879.4,
898.2,43608.8,43608.8,
897.8,43817.6,43817.6,
897.4,44179.4,44179.4,
897,43947.1,43947.1,
896.6,43820.6,43820.6,
896.2,44873.5,44873.5,
895.8,44450,44450,
895.4,44020.6,44020.6,
895,44120.6,44120.6,
894.6,44258.8,44258.8,
894.2,44555.9,44555.9,
893.8,44655.9,44655.9,
893.4,44173.5,44173.5,
893,44423.5,44423.5,
892.6,44647.1,44647.1,
892.2,44958.8,44958.8,
891.8,44867.6,44867.6,
891.4,44423.5,44423.5,
891,44585.3,44585.3,
890.6,45023.5,45023.5,
890.2,45114.7,45114.7,
889.8,45061.8,45061.8,
889.4,44511.8,44511.8,
889,45841.2,45841.2,
888.6,45308.8,45308.8,
888.2,44511.8,44511.8,
887.8,44620.6,44620.6,
887.4,44632.4,44632.4,
887,45014.7,45014.7,
886.6,46100,46100,
886.2,45155.9,45155.9,
885.8,44976.5,44976.5,
885.4,45591.2,45591.2,
885,46300,46300,
884.6,45723.5,45723.5,
884.2,45541.2,45541.2,
883.8,45338.2,45338.2,
883.4,45982.4,45982.4,
883,46179.4,46179.4,
882.6,46702.9,46702.9,
882.2,46497.1,46497.1,
881.8,46614.7,46614.7,
881.4,46291.2,46291.2,
881,46835.3,46835.3,
880.6,46611.8,46611.8,
880.2,46811.8,46811.8,
879.8,46282.4,46282.4,
879.4,46632.4,46632.4,
879,46005.9,46005.9,
878.6,46805.9,46805.9,
878.2,46650,46650,
877.8,46755.9,46755.9,
877.4,46176.5,46176.5,
877,46447.1,46447.1,
876.6,46676.5,46676.5,
876.2,46223.5,46223.5,
875.8,46850,46850,
875.4,46035.3,46035.3,
875,46288.2,46288.2,
874.6,47200,47200,
874.2,46567.6,46567.6,
873.8,46676.5,46676.5,
873.4,46191.2,46191.2,
873,46661.8,46661.8,
872.6,46432.4,46432.4,
872.2,46917.6,46917.6,
871.8,46188.2,46188.2,
871.4,46814.7,46814.7,
871,46605.9,46605.9,
870.6,46741.2,46741.2,
870.2,46279.4,46279.4,
869.8,45894.1,45894.1,
869.4,46476.5,46476.5,
869,46252.9,46252.9,
868.6,46564.7,46564.7,
868.2,46544.1,46544.1,
867.8,46997.1,46997.1,
867.4,46617.6,46617.6,
867,46691.2,46691.2,
866.6,47379.4,47379.4,
866.2,46841.2,46841.2,
865.8,47838.2,47838.2,
865.4,48376.5,48376.5,
865,47541.2,47541.2,
864.6,47794.1,47794.1,
864.2,48273.5,48273.5,
863.8,48479.4,48479.4,
863.4,48629.4,48629.4,
863,49067.6,49067.6,
862.6,49276.5,49276.5,
862.2,49205.9,49205.9,
861.8,49388.2,49388.2,
861.4,49682.4,49682.4,
861,50420.6,50420.6,
860.6,49320.6,49320.6,
860.2,49579.4,49579.4,
859.8,49473.5,49473.5,
859.4,49785.3,49785.3,
859,49620.6,49620.6,
858.6,49764.7,49764.7,
858.2,49517.6,49517.6,
857.8,49632.4,49632.4,
857.4,49505.9,49505.9,
857,49494.1,49494.1,
856.6,49302.9,49302.9,
856.2,48647.1,48647.1,
855.8,48617.6,48617.6,
855.4,48961.8,48961.8,
855,49626.5,49626.5,
854.6,48523.5,48523.5,
854.2,48608.8,48608.8,
853.8,49085.3,49085.3,
853.4,48814.7,48814.7,
853,49226.5,49226.5,
852.6,49285.3,49285.3,
852.2,48911.8,48911.8,
851.8,48600,48600,
851.4,48152.9,48152.9,
851,48076.5,48076.5,
850.6,47847.1,47847.1,
850.2,48650,48650,
849.8,48047.1,48047.1,
849.4,48382.4,48382.4,
849,47832.4,47832.4,
848.6,47164.7,47164.7,
848.2,47938.2,47938.2,
847.8,47535.3,47535.3,
847.4,47647.1,47647.1,
847,47914.7,47914.7,
846.6,47155.9,47155.9,
846.2,47700,47700,
845.8,47211.8,47211.8,
845.4,48273.5,48273.5,
845,46255.9,46255.9,
844.6,47667.6,47667.6,
844.2,47167.6,47167.6,
843.8,47094.1,47094.1,
843.4,47364.7,47364.7,
843,48191.2,48191.2,
842.6,47435.3,47435.3,
842.2,47805.9,47805.9,
841.8,47797.1,47797.1,
841.4,48255.9,48255.9,
841,48329.4,48329.4,
840.6,48058.8,48058.8,
840.2,48326.5,48326.5,
839.8,49061.8,49061.8,
839.4,48176.5,48176.5,
839,48944.1,48944.1,
838.6,49761.8,49761.8,
838.2,50450,50450,
837.8,50902.9,50902.9,
837.4,51938.2,51938.2,
837,52502.9,52502.9,
836.6,54132.4,54132.4,
836.2,53944.1,53944.1,
835.8,54555.9,54555.9,
835.4,55405.9,55405.9,
835,56152.9,56152.9,
834.6,56626.5,56626.5,
834.2,57138.2,57138.2,
833.8,57582.4,57582.4,
833.4,57823.5,57823.5,
833,57623.5,57623.5,
832.6,56185.3,56185.3,
832.2,55567.6,55567.6,
831.8,54576.5,54576.5,
831.4,54194.1,54194.1,
831,53452.9,53452.9,
830.6,52891.2,52891.2,
830.2,52673.5,52673.5,
829.8,52191.2,52191.2,
829.4,51776.5,51776.5,
829,50502.9,50502.9,
828.6,50726.5,50726.5,
828.2,50482.4,50482.4,
827.8,50876.5,50876.5,
827.4,50038.2,50038.2,
827,49532.4,49532.4,
826.6,49829.4,49829.4,
826.2,49082.4,49082.4,
825.8,49573.5,49573.5,
825.4,48761.8,48761.8,
825,47844.1,47844.1,
824.6,47358.8,47358.8,
824.2,46588.2,46588.2,
823.8,45473.5,45473.5,
823.4,45820.6,45820.6,
823,45894.1,45894.1,
822.6,46055.9,46055.9,
822.2,44350,44350,
821.8,45638.2,45638.2,
821.4,44858.8,44858.8,
821,44285.3,44285.3,
820.6,44379.4,44379.4,
820.2,44679.4,44679.4,
819.8,44700,44700,
819.4,44000,44000,
819,44808.8,44808.8,
818.6,44470.6,44470.6,
818.2,44414.7,44414.7,
817.8,44650,44650,
817.4,45026.5,45026.5,
817,44570.6,44570.6,
816.6,44926.5,44926.5,
816.2,44776.5,44776.5,
815.8,43714.7,43714.7,
815.4,44370.6,44370.6,
815,44020.6,44020.6,
814.6,44670.6,44670.6,
814.2,44167.6,44167.6,
813.8,43994.1,43994.1,
813.4,44420.6,44420.6,
813,45067.6,45067.6,
812.6,44567.6,44567.6,
812.2,44435.3,44435.3,
811.8,44885.3,44885.3,
811.4,44700,44700,
811,44973.5,44973.5,
810.6,44779.4,44779.4,
810.2,45367.6,45367.6,
809.8,44473.5,44473.5,
809.4,45126.5,45126.5,
809,45185.3,45185.3,
808.6,45100,45100,
808.2,45238.2,45238.2,
807.8,45388.2,45388.2,
807.4,44197.1,44197.1,
807,45179.4,45179.4,
806.6,44647.1,44647.1,
806.2,45894.1,45894.1,
805.8,45282.4,45282.4,
805.4,45844.1,45844.1,
805,45288.2,45288.2,
804.6,45150,45150,
804.2,44752.9,44752.9,
803.8,45094.1,45094.1,
803.4,45220.6,45220.6,
803,44988.2,44988.2,
802.6,45397.1,45397.1,
802.2,44644.1,44644.1,
801.8,45502.9,45502.9,
801.4,44897.1,44897.1,
801,44867.6,44867.6,
800.6,45814.7,45814.7,
800.2,45635.3,45635.3,
799.8,45344.1,45344.1,
799.4,45208.8,45208.8,
799,45458.8,45458.8,
798.6,45200,45200,
798.2,46052.9,46052.9,
797.8,45952.9,45952.9,
797.4,45391.2,45391.2,
797,45994.1,45994.1,
796.6,45544.1,45544.1,
796.2,45961.8,45961.8,
795.8,45744.1,45744.1,
795.4,46352.9,46352.9,
795,45838.2,45838.2,
794.6,46494.1,46494.1,
794.2,45467.6,45467.6,
793.8,46414.7,46414.7,
793.4,46414.7,46414.7,
793,46332.4,46332.4,
792.6,46100,46100,
792.2,45979.4,45979.4,
791.8,46747.1,46747.1,
791.4,46305.9,46305.9,
791,46423.5,46423.5,
790.6,47197.1,47197.1,
790.2,46429.4,46429.4,
789.8,46964.7,46964.7,
789.4,45982.4,45982.4,
789,46038.2,46038.2,
788.6,46244.1,46244.1,
788.2,46661.8,46661.8,
787.8,46488.2,46488.2,
787.4,46532.4,46532.4,
787,46708.8,46708.8,
786.6,46511.8,46511.8,
786.2,45732.4,45732.4,
785.8,47288.2,47288.2,
785.4,46855.9,46855.9,
785,47102.9,47102.9,
784.6,47255.9,47255.9,
784.2,47455.9,47455.9,
783.8,47791.2,47791.2,
783.4,47167.6,47167.6,
783,47320.6,47320.6,
782.6,47097.1,47097.1,
782.2,47179.4,47179.4,
781.8,46864.7,46864.7,
781.4,47335.3,47335.3,
781,46835.3,46835.3,
780.6,47129.4,47129.4,
780.2,46647.1,46647.1,
779.8,47176.5,47176.5,
779.4,46947.1,46947.1,
779,46955.9,46955.9,
778.6,47108.8,47108.8,
778.2,47752.9,47752.9,
777.8,47276.5,47276.5,
777.4,47620.6,47620.6,
777,47205.9,47205.9,
776.6,47670.6,47670.6,
776.2,47597.1,47597.1,
775.8,47082.4,47082.4,
775.4,47450,47450,
775,47773.5,47773.5,
774.6,47908.8,47908.8,
774.2,48361.8,48361.8,
773.8,47597.1,47597.1,
773.4,47617.6,47617.6,
773,47576.5,47576.5,
772.6,48182.4,48182.4,
772.2,49482.4,49482.4,
771.8,48305.9,48305.9,
771.4,47329.4,47329.4,
771,48070.6,48070.6,
770.6,47473.5,47473.5,
770.2,47832.4,47832.4,
769.8,48226.5,48226.5,
769.4,48000,48000,
769,47985.3,47985.3,
768.6,48111.8,48111.8,
768.2,47897.1,47897.1,
767.8,48511.8,48511.8,
767.4,48008.8,48008.8,
767,48435.3,48435.3,
766.6,48579.4,48579.4,
766.2,47791.2,47791.2,
765.8,48202.9,48202.9,
765.4,48600,48600,
765,48573.5,48573.5,
764.6,48717.6,48717.6,
764.2,48308.8,48308.8,
763.8,48852.9,48852.9,
763.4,48523.5,48523.5,
763,47917.6,47917.6,
762.6,47979.4,47979.4,
762.2,48182.4,48182.4,
761.8,48900,48900,
761.4,48823.5,48823.5,
761,49191.2,49191.2,
760.6,48644.1,48644.1,
760.2,48720.6,48720.6,
759.8,49120.6,49120.6,
759.4,49011.8,49011.8,
759,49300,49300,
758.6,48467.6,48467.6,
758.2,48817.6,48817.6,
757.8,48941.2,48941.2,
757.4,49400,49400,
757,49523.5,49523.5,
756.6,49220.6,49220.6,
756.2,49208.8,49208.8,
755.8,48967.6,48967.6,
755.4,49502.9,49502.9,
755,49100,49100,
754.6,48785.3,48785.3,
754.2,49488.2,49488.2,
753.8,49014.7,49014.7,
753.4,48964.7,48964.7,
753,49005.9,49005.9,
752.6,49488.2,49488.2,
752.2,49379.4,49379.4,
751.8,49370.6,49370.6,
751.4,49211.8,49211.8,
751,49038.2,49038.2,
750.6,49261.8,49261.8,
750.2,49435.3,49435.3,
749.8,49094.1,49094.1,
749.4,49720.6,49720.6,
749,49711.8,49711.8,
748.6,49938.2,49938.2,
748.2,50097.1,50097.1,
747.8,49947.1,49947.1,
747.4,49458.8,49458.8,
747,49476.5,49476.5,
746.6,49811.8,49811.8,
746.2,48952.9,48952.9,
745.8,50141.2,50141.2,
745.4,49797.1,49797.1,
745,49605.9,49605.9,
744.6,49685.3,49685.3,
744.2,50058.8,50058.8,
743.8,50241.2,50241.2,
743.4,49773.5,49773.5,
743,50573.5,50573.5,
742.6,50852.9,50852.9,
742.2,49732.4,49732.4,
741.8,50332.4,50332.4,
741.4,49938.2,49938.2,
741,50464.7,50464.7,
740.6,50267.6,50267.6,
740.2,50211.8,50211.8,
739.8,50261.8,50261.8,
739.4,50702.9,50702.9,
739,49985.3,49985.3,
738.6,50617.6,50617.6,
738.2,51017.6,51017.6,
737.8,51408.8,51408.8,
737.4,50317.6,50317.6,
737,50920.6,50920.6,
736.6,50767.6,50767.6,
736.2,51000,51000,
735.8,51491.2,51491.2,
735.4,51282.4,51282.4,
735,51297.1,51297.1,
734.6,50735.3,50735.3,
734.2,50123.5,50123.5,
733.8,50708.8,50708.8,
733.4,50811.8,50811.8,
733,50197.1,50197.1,
732.6,51311.8,51311.8,
732.2,50494.1,50494.1,
731.8,51129.4,51129.4,
731.4,51005.9,51005.9,
731,50255.9,50255.9,
730.6,50797.1,50797.1,
730.2,51217.6,51217.6,
729.8,50441.2,50441.2,
729.4,51052.9,51052.9,
729,50367.6,50367.6,
728.6,50976.5,50976.5,
728.2,51076.5,51076.5,
727.8,50208.8,50208.8,
727.4,50670.6,50670.6,
727,50105.9,50105.9,
726.6,50150,50150,
726.2,50752.9,50752.9,
725.8,50717.6,50717.6,
725.4,51579.4,51579.4,
725,50650,50650,
724.6,51314.7,51314.7,
724.2,51932.4,51932.4,
723.8,51997.1,51997.1,
723.4,50585.3,50585.3,
723,51344.1,51344.1,
722.6,52114.7,52114.7,
722.2,51411.8,51411.8,
721.8,52450,52450,
721.4,52432.4,52432.4,
721,52564.7,52564.7,
720.6,52023.5,52023.5,
720.2,52670.6,52670.6,
719.8,53158.8,53158.8,
719.4,53505.9,53505.9,
719,52758.8,52758.8,
718.6,53329.4,53329.4,
718.2,53541.2,53541.2,
717.8,52935.3,52935.3,
717.4,53679.4,53679.4,
717,53594.1,53594.1,
716.6,53870.6,53870.6,
716.2,54058.8,54058.8,
715.8,53323.5,53323.5,
715.4,52600,52600,
715,53170.6,53170.6,
714.6,52094.1,52094.1,
714.2,53494.1,53494.1,
713.8,53152.9,53152.9,
713.4,52770.6,52770.6,
713,52717.6,52717.6,
712.6,53114.7,53114.7,
712.2,53100,53100,
711.8,53932.4,53932.4,
711.4,52805.9,52805.9,
711,52867.6,52867.6,
710.6,52752.9,52752.9,
710.2,53220.6,53220.6,
709.8,53417.6,53417.6,
709.4,53155.9,53155.9,
709,52747.1,52747.1,
708.6,53832.4,53832.4,
708.2,53035.3,53035.3,
707.8,53041.2,53041.2,
707.4,53494.1,53494.1,
707,53538.2,53538.2,
706.6,52614.7,52614.7,
706.2,51432.4,51432.4,
705.8,51682.4,51682.4,
705.4,51297.1,51297.1,
705,51182.4,51182.4,
704.6,51447.1,51447.1,
704.2,51394.1,51394.1,
703.8,50897.1,50897.1,
703.4,50432.4,50432.4,
703,50938.2,50938.2,
702.6,50223.5,50223.5,
702.2,49976.5,49976.5,
701.8,50400,50400,
701.4,50017.6,50017.6,
701,49667.6,49667.6,
700.6,48747.1,48747.1,
700.2,49352.9,49352.9,
699.8,48347.1,48347.1,
699.4,49273.5,49273.5,
699,47608.8,47608.8,
698.6,47732.4,47732.4,
698.2,47673.5,47673.5,
697.8,47876.5,47876.5,
697.4,46588.2,46588.2,
697,46997.1,46997.1,
696.6,46358.8,46358.8,
696.2,46258.8,46258.8,
695.8,46529.4,46529.4,
695.4,45882.4,45882.4,
695,46155.9,46155.9,
694.6,45752.9,45752.9,
694.2,46132.4,46132.4,
693.8,45511.8,45511.8,
693.4,45591.2,45591.2,
693,46000,46000,
692.6,46182.4,46151.9,
692.2,46273.5,46151.7,
691.8,46747.1,46150.6,
691.4,47985.3,46147.2,
691,49882.4,46140.4,
690.6,54244.1,46125.6,
690.2,62735.3,46095.3,
689.8,79750,46033.9,
689.4,103594,45928.9,
689,133532,45769,
688.6,155565,45568.6,
688.2,155335,45368.3,
687.8,132191,45209.8,
687.4,101579,45106.9,
687,76620.6,45049.4,
686.6,60455.9,45021.3,
686.2,53647.1,45005.6,
685.8,50379.4,44995.7,
685.4,49108.8,44988.2,
685,48005.9,44982.7,
684.6,47100,44978.9,
684.2,46538.2,44976,
683.8,46552.9,44973.1,
683.4,45473.5,44972.2,
683,45179.4,44971.9,
682.6,44888.2,44971.7,
682.2,44900,44971.6,
681.8,45126.5,45126.5,
681.4,44302.9,44302.9,
681,44720.6,44720.6,
680.6,44188.2,44188.2,
680.2,44511.8,44511.8,
679.8,44317.6,44317.6,
679.4,43947.1,43947.1,
679,44450,44450,
678.6,44061.8,44061.8,
678.2,44488.2,44488.2,
677.8,44997.1,44997.1,
677.4,44914.7,44914.7,
677,44197.1,44197.1,
676.6,44497.1,44497.1,
676.2,44141.2,44141.2,
675.8,44117.6,44117.6,
675.4,44223.5,44223.5,
675,44532.4,44532.4,
674.6,43685.3,43685.3,
674.2,44547.1,44547.1,
673.8,44829.4,44829.4,
673.4,44905.9,44905.9,
673,44888.2,44888.2,
672.6,44500,44500,
672.2,44767.6,44767.6,
671.8,45379.4,45379.4,
671.4,44882.4,44882.4,
671,44964.7,44964.7,
670.6,45229.4,45229.4,
670.2,45397.1,45397.1,
669.8,45138.2,45138.2,
669.4,45217.6,45217.6,
669,45208.8,45208.8,
668.6,44502.9,44502.9,
668.2,44955.9,44955.9,
667.8,45291.2,45291.2,
667.4,44938.2,44938.2,
667,44688.2,44688.2,
666.6,45747.1,45747.1,
666.2,44420.6,44420.6,
665.8,45414.7,45414.7,
665.4,45750,45750,
665,45479.4,45479.4,
664.6,45020.6,45020.6,
664.2,45082.4,45082.4,
663.8,44908.8,44908.8,
663.4,44941.2,44941.2,
663,44632.4,44632.4,
662.6,44888.2,44888.2,
662.2,45455.9,45455.9,
661.8,45026.5,45026.5,
661.4,45241.2,45241.2,
661,45726.5,45726.5,
660.6,45200,45200,
660.2,45270.6,45270.6,
659.8,44855.9,44855.9,
659.4,45114.7,45114.7,
659,45238.2,45238.2,
658.6,45564.7,45564.7,
658.2,45911.8,45911.8,
657.8,45158.8,45158.8,
657.4,45650,45650,
657,45638.2,45638.2,
656.6,45705.9,45705.9,
656.2,45450,45450,
655.8,46414.7,46414.7,
655.4,44882.4,44882.4,
655,45214.7,45214.7,
654.6,45717.6,45717.6,
654.2,44658.8,44658.8,
653.8,45197.1,45197.1,
653.4,44970.6,44970.6,
653,46000,46000,
652.6,45708.8,45708.8,
652.2,46008.8,46008.8,
651.8,44908.8,44908.8,
651.4,45241.2,45241.2,
651,45014.7,45014.7,
650.6,46752.9,46752.9,
650.2,45294.1,45294.1,
649.8,46314.7,46314.7,
649.4,45517.6,45517.6,
649,46782.4,46782.4,
648.6,45802.9,45802.9,
648.2,44979.4,44979.4,
647.8,45300,45300,
647.4,45735.3,45735.3,
647,45673.5,45673.5,
646.6,46547.1,46547.1,
646.2,45997.1,45997.1,
645.8,46329.4,46329.4,
645.4,45588.2,45588.2,
645,45873.5,45873.5,
644.6,46564.7,46564.7,
644.2,46288.2,46288.2,
643.8,46200,46200,
643.4,45950,45950,
643,46255.9,46255.9,
642.6,46661.8,46661.8,
642.2,46779.4,46779.4,
641.8,46170.6,46170.6,
641.4,46873.5,46873.5,
641,46135.3,46135.3,
640.6,46364.7,46364.7,
640.2,46038.2,46038.2,
639.8,46455.9,46455.9,
639.4,46232.4,46232.4,
639,46464.7,46464.7,
638.6,46473.5,46473.5,
638.2,45691.2,45691.2,
637.8,45926.5,45926.5,
637.4,46326.5,46326.5,
637,46623.5,46623.5,
636.6,47258.8,47258.8,
636.2,45829.4,45829.4,
635.8,46026.5,46026.5,
635.4,46126.5,46126.5,
635,46629.4,46629.4,
634.6,46029.4,46029.4,
634.2,46547.1,46547.1,
633.8,46120.6,46120.6,
633.4,47000,47000,
633,46052.9,46052.9,
632.6,46650,46650,
632.2,46335.3,46335.3,
631.8,46555.9,46555.9,
631.4,46332.4,46332.4,
631,46747.1,46747.1,
630.6,46314.7,46314.7,
630.2,47379.4,47379.4,
629.8,46394.1,46394.1,
629.4,47526.5,47526.5,
629,46626.5,46626.5,
628.6,46520.6,46520.6,
628.2,46270.6,46270.6,
627.8,46902.9,46902.9,
627.4,46520.6,46520.6,
627,46288.2,46288.2,
626.6,46738.2,46738.2,
626.2,46620.6,46620.6,
625.8,46970.6,46970.6,
625.4,47391.2,47391.2,
625,46620.6,46620.6,
624.6,46561.8,46561.8,
624.2,46920.6,46920.6,
623.8,46461.8,46461.8,
623.4,46688.2,46688.2,
623,47014.7,47014.7,
622.6,46814.7,46814.7,
622.2,46914.7,46914.7,
621.8,47373.5,47373.5,
621.4,46961.8,46961.8,
621,46911.8,46911.8,
620.6,47823.5,47823.5,
620.2,47220.6,47220.6,
619.8,47041.2,47041.2,
619.4,47220.6,47220.6,
619,47673.5,47673.5,
618.6,47158.8,47158.8,
618.2,46800,46800,
617.8,46923.5,46923.5,
617.4,47602.9,47602.9,
617,46758.8,46758.8,
616.6,47376.5,47376.5,
616.2,46982.4,46982.4,
615.8,47444.1,47444.1,
615.4,47144.1,47144.1,
615,47511.8,47511.8,
614.6,47129.4,47129.4,
614.2,47294.1,47294.1,
613.8,47758.8,47758.8,
613.4,47267.6,47267.6,
613,47302.9,47302.9,
612.6,47573.5,47573.5,
612.2,47120.6,47120.6,
611.8,47744.1,47744.1,
611.4,47947.1,47947.1,
611,47370.6,47370.6,
610.6,47500,47500,
610.2,48326.5,48326.5,
609.8,47629.4,47629.4,
609.4,47223.5,47223.5,
609,47723.5,47723.5,
608.6,48088.2,48088.2,
608.2,47526.5,47526.5,
607.8,47920.6,47920.6,
607.4,46873.5,46873.5,
607,48002.9,48002.9,
606.6,47773.5,47773.5,
606.2,47964.7,47964.7,
605.8,48123.5,48123.5,
605.4,48685.3,48685.3,
605,47967.6,47967.6,
604.6,48338.2,48338.2,
604.2,48702.9,48702.9,
603.8,47564.7,47564.7,
603.4,47900,47900,
603,48550,48550,
602.6,48244.1,48244.1,
602.2,48311.8,48311.8,
601.8,48879.4,48879.4,
601.4,48520.6,48520.6,
601,47938.2,47938.2,
600.6,48047.1,48047.1,
600.2,48591.2,48591.2,
599.8,47917.6,47917.6,
599.4,47817.6,47817.6,
599,47341.2,47341.2,
598.6,47944.1,47944.1,
598.2,47838.2,47838.2,
597.8,47779.4,47779.4,
597.4,47838.2,47838.2,
597,48088.2,48088.2,
596.6,48123.5,48123.5,
596.2,48176.5,48176.5,
595.8,48579.4,48579.4,
595.4,48241.2,48241.2,
595,49167.6,49167.6,
594.6,48067.6,48067.6,
594.2,48485.3,48485.3,
593.8,48232.4,48232.4,
593.4,48773.5,48773.5,
593,48670.6,48670.6,
592.6,48138.2,48138.2,
592.2,48167.6,48167.6,
591.8,48305.9,48305.9,
591.4,48838.2,48838.2,
591,48573.5,48573.5,
590.6,49067.6,49067.6,
590.2,47217.6,47217.6,
589.8,48494.1,48494.1,
589.4,48170.6,48170.6,
589,48602.9,48602.9,
588.6,48647.1,48647.1,
588.2,48285.3,48285.3,
587.8,48211.8,48211.8,
587.4,48058.8,48058.8,
587,48520.6,48520.6,
586.6,48520.6,48520.6,
586.2,48805.9,48805.9,
585.8,48091.2,48091.2,
585.4,47841.2,47841.2,
585,48976.5,48976.5,
584.6,48526.5,48526.5,
584.2,48414.7,48414.7,
583.8,48711.8,48711.8,
583.4,47847.1,47847.1,
583,48191.2,48191.2,
582.6,48311.8,48311.8,
582.2,48688.2,48688.2,
581.8,49223.5,49223.5,
581.4,48770.6,48770.6,
581,48944.1,48944.1,
580.6,48526.5,48526.5,
580.2,48835.3,48835.3,
579.8,48747.1,48747.1,
579.4,48638.2,48638.2,
579,48802.9,48802.9,
578.6,49100,49100,
578.2,48491.2,48491.2,
577.8,48967.6,48967.6,
577.4,49400,49400,
577,48229.4,48229.4,
576.6,49744.1,49744.1,
576.2,49376.5,49376.5,
575.8,49802.9,49802.9,
575.4,49064.7,49064.7,
575,48658.8,48658.8,
574.6,49441.2,49441.2,
574.2,49905.9,49905.9,
573.8,49741.2,49741.2,
573.4,49600,49600,
573,49755.9,49755.9,
572.6,49482.4,49482.4,
572.2,49170.6,49170.6,
571.8,49585.3,49585.3,
571.4,49888.2,49888.2,
571,49961.8,49961.8,
570.6,49411.8,49411.8,
570.2,49470.6,49470.6,
569.8,48485.3,48485.3,
569.4,49273.5,49273.5,
569,49200,49200,
568.6,49205.9,49205.9,
568.2,48723.5,48723.5,
567.8,48811.8,48811.8,
567.4,48952.9,48952.9,
567,48555.9,48555.9,
566.6,48152.9,48152.9,
566.2,49605.9,49605.9,
565.8,48658.8,48658.8,
565.4,48667.6,48667.6,
565,48558.8,48558.8,
564.6,48879.4,48879.4,
564.2,48397.1,48397.1,
563.8,48752.9,48752.9,
563.4,48520.6,48520.6,
563,48591.2,48591.2,
562.6,48473.5,48473.5,
562.2,48202.9,48202.9,
561.8,48529.4,48529.4,
561.4,48485.3,48485.3,
561,48576.5,48576.5,
560.6,48302.9,48302.9,
560.2,49197.1,49197.1,
559.8,49620.6,49620.6,
559.4,49082.4,49082.4,
559,49011.8,49011.8,
558.6,48526.5,48526.5,
558.2,49600,49600,
557.8,49164.7,49164.7,
557.4,49332.4,49332.4,
557,49802.9,49802.9,
556.6,50302.9,50302.9,
556.2,49641.2,49641.2,
555.8,50288.2,50288.2,
555.4,50050,50050,
555,50035.3,50035.3,
554.6,49988.2,49988.2,
554.2,50452.9,50452.9,
553.8,50964.7,50964.7,
553.4,50550,50550,
553,50626.5,50626.5,
552.6,49779.4,49779.4,
552.2,50394.1,50394.1,
551.8,49726.5,49726.5,
551.4,50214.7,50214.7,
551,50017.6,50017.6,
550.6,50788.2,50788.2,
550.2,50158.8,50158.8,
549.8,49761.8,49761.8,
549.4,49694.1,49694.1,
549,49282.4,49282.4,
548.6,49288.2,49288.2,
548.2,49741.2,49741.2,
547.8,49738.2,49738.2,
547.4,49241.2,49241.2,
547,49223.5,49223.5,
546.6,49344.1,49344.1,
546.2,48714.7,48714.7,
545.8,48652.9,48652.9,
545.4,48973.5,48973.5,
545,48202.9,48202.9,
544.6,47852.9,47852.9,
544.2,46755.9,46755.9,
543.8,46897.1,46897.1,
543.4,45326.5,45326.5,
543,45605.9,45605.9,
542.6,45694.1,45694.1,
542.2,45147.1,45147.1,
541.8,44923.5,44923.5,
541.4,44694.1,44694.1,
541,44500,44500,
540.6,44352.9,44352.9,
540.2,43847.1,43847.1,
539.8,43700,43700,
539.4,42870.6,42870.6,
539,42458.8,42458.8,
538.6,42829.4,42829.4,
538.2,42123.5,42123.5,
537.8,42923.5,42923.5,
537.4,42664.7,42664.7,
537,43000,43000,
536.6,43714.7,43714.7,
536.2,43582.4,43633.3,
535.8,43602.9,43633.3,
535.4,44288.2,43632.6,
535,45085.3,43631.2,
534.6,45920.6,43629,
534.2,47826.5,43625,
533.8,51832.4,43617.2,
533.4,61976.5,43599.6,
533,80144.1,43564.6,
532.6,100538,43510.1,
532.2,110997,43445.5,
531.8,103603,43388,
531.4,84708.8,43348.4,
531,68985.3,43323.9,
530.6,57558.8,43310.3,
530.2,52152.9,43301.8,
529.8,47885.3,43297.4,
529.4,45723.5,43295.1,
529,44720.6,43293.7,
528.6,44485.3,43292.6,
528.2,43652.9,43292.2,
527.8,43197.1,43292.2,
527.4,43026.5,43026.5,
527,42735.3,42735.3,
526.6,41926.5,41926.5,
526.2,42114.7,42114.7,
525.8,41961.8,41961.8,
525.4,42164.7,42164.7,
525,41544.1,41544.1,
524.6,41900,41900,
524.2,41800,41800,
523.8,41594.1,41594.1,
523.4,41929.4,41929.4,
523,41950,41950,
522.6,42191.2,42191.2,
522.2,42970.6,42970.6,
521.8,41455.9,41455.9,
521.4,42123.5,42123.5,
521,42585.3,42585.3,
520.6,41870.6,41870.6,
520.2,41482.4,41482.4,
519.8,42344.1,42344.1,
519.4,41423.5,41423.5,
519,42458.8,42458.8,
518.6,41764.7,41764.7,
518.2,41591.2,41591.2,
517.8,41114.7,41114.7,
517.4,41444.1,41444.1,
517,42379.4,42379.4,
516.6,41338.2,41338.2,
516.2,42611.8,42611.8,
515.8,41538.2,41538.2,
515.4,42279.4,42279.4,
515,41520.6,41520.6,
514.6,42202.9,42202.9,
514.2,41582.4,41582.4,
513.8,41497.1,41497.1,
513.4,41700,41700,
513,41905.9,41905.9,
512.6,41829.4,41829.4,
512.2,41647.1,41647.1,
511.8,41808.8,41808.8,
511.4,41620.6,41620.6,
511,41711.8,41711.8,
510.6,42111.8,42111.8,
510.2,42067.6,42067.6,
509.8,41717.6,41717.6,
509.4,41679.4,41679.4,
509,41400,41400,
508.6,41329.4,41329.4,
508.2,41494.1,41494.1,
507.8,42420.6,42420.6,
507.4,41558.8,41558.8,
507,42544.1,42544.1,
506.6,41817.6,41817.6,
506.2,41523.5,41523.5,
505.8,41870.6,41870.6,
505.4,41476.5,41476.5,
505,41929.4,41929.4,
504.6,41832.4,41832.4,
504.2,42126.5,42126.5,
503.8,41714.7,41714.7,
503.4,41950,41950,
503,42332.4,42332.4,
502.6,41894.1,41894.1,
502.2,41911.8,41911.8,
501.8,41861.8,41861.8,
501.4,42017.6,42017.6,
501,42852.9,42852.9,
500.6,42385.3,42385.3,
500.2,42526.5,42526.5,
499.8,42961.8,42961.8,
499.4,43032.4,43032.4,
499,42614.7,42614.7,
498.6,42929.4,42929.4,
498.2,43035.3,43035.3,
497.8,43673.5,43673.5,
497.4,44170.6,44170.6,
497,44708.8,44708.8,
496.6,45664.7,45664.7,
496.2,44811.8,44811.8,
495.8,44897.1,44897.1,
495.4,43676.5,43676.5,
495,42420.6,42420.6,
494.6,42582.4,42582.4,
494.2,42067.6,42067.6,
493.8,41811.8,41811.8,
493.4,41629.4,41629.4,
493,41555.9,41555.9,
492.6,41294.1,41294.1,
492.2,41864.7,41864.7,
491.8,41029.4,41029.4,
491.4,41367.6,41367.6,
491,41682.4,41682.4,
490.6,41288.2,41288.2,
490.2,41582.4,41582.4,
489.8,41470.6,41470.6,
489.4,41391.2,41391.2,
489,41435.3,41435.3,
488.6,41173.5,41173.5,
488.2,41397.1,41397.1,
487.8,41658.8,41658.8,
487.4,41611.8,41611.8,
487,42241.2,42241.2,
486.6,41582.4,41582.4,
486.2,41470.6,41470.6,
485.8,41723.5,41723.5,
485.4,41523.5,41523.5,
485,42023.5,42023.5,
484.6,41723.5,41723.5,
484.2,41997.1,41997.1,
483.8,41100,41100,
483.4,41588.2,41588.2,
483,41702.9,41702.9,
482.6,41523.5,41523.5,
482.2,41597.1,41597.1,
481.8,41791.2,41791.2,
481.4,41714.7,41714.7,
481,41450,41450,
480.6,41473.5,41473.5,
480.2,41479.4,41479.4,
479.8,41338.2,41338.2,
479.4,41476.5,41476.5,
479,41879.4,41879.4,
478.6,41264.7,41264.7,
478.2,42061.8,42061.8,
477.8,41773.5,41773.5,
477.4,41735.3,41735.3,
477,41250,41250,
476.6,41591.2,41591.2,
476.2,42067.6,42067.6,
475.8,41502.9,41502.9,
475.4,41944.1,41944.1,
475,41688.2,41688.2,
474.6,41314.7,41314.7,
474.2,41723.5,41723.5,
473.8,41985.3,41985.3,
473.4,40873.5,40873.5,
473,41861.8,41861.8,
472.6,41476.5,41476.5,
472.2,41497.1,41497.1,
471.8,41694.1,41694.1,
471.4,40991.2,40991.2,
471,41605.9,41605.9,
470.6,41029.4,41029.4,
470.2,41152.9,41152.9,
469.8,41629.4,41629.4,
469.4,41488.2,41488.2,
469,41861.8,41861.8,
468.6,41397.1,41397.1,
468.2,42094.1,42094.1,
467.8,41144.1,41144.1,
467.4,41670.6,41670.6,
467,42144.1,42144.1,
466.6,41814.7,41814.7,
466.2,41967.6,41967.6,
465.8,41182.4,41182.4,
465.4,42217.6,42217.6,
465,41320.6,41320.6,
464.6,41629.4,41629.4,
464.2,41247.1,41247.1,
463.8,41852.9,41852.9,
463.4,42102.9,42102.9,
463,41238.2,41238.2,
462.6,41982.4,41982.4,
462.2,41458.8,41458.8,
461.8,41994.1,41994.1,
461.4,41702.9,41702.9,
461,41844.1,41844.1,
460.6,41611.8,41611.8,
460.2,41997.1,41997.1,
459.8,41464.7,41464.7,
459.4,41976.5,41976.5,
459,41364.7,41364.7,
458.6,41497.1,41497.1,
458.2,41408.8,41408.8,
457.8,42097.1,42097.1,
457.4,42302.9,42302.9,
457,41229.4,41229.4,
456.6,42008.8,42008.8,
456.2,41664.7,41664.7,
455.8,41750,41750,
455.4,41994.1,41994.1,
455,42079.4,42079.4,
454.6,41970.6,41970.6,
454.2,41873.5,41873.5,
453.8,41600,41600,
453.4,41561.8,41561.8,
453,41673.5,41673.5,
452.6,41717.6,41717.6,
452.2,42179.4,42179.4,
451.8,41885.3,41885.3,
451.4,42055.9,42055.9,
451,41779.4,41779.4,
450.6,41076.5,41076.5,
450.2,41758.8,41758.8,
449.8,41150,41150,
449.4,42017.6,42017.6,
449,40920.6,40920.6,
448.6,41979.4,41979.4,
448.2,41197.1,41197.1,
447.8,41497.1,41497.1,
447.4,41602.9,41602.9,
447,41947.1,41947.1,
446.6,42100,42100,
446.2,42073.5,42073.5,
445.8,42585.3,42585.3,
445.4,42511.8,42511.8,
445,42073.5,42073.5,
444.6,42252.9,42252.9,
444.2,41729.4,41729.4,
443.8,42929.4,42929.4,
443.4,41873.5,41873.5,
443,42447.1,42447.1,
442.6,41161.8,41161.8,
442.2,41870.6,41870.6,
441.8,41470.6,41470.6,
441.4,41755.9,41755.9,
441,41473.5,41473.5,
440.6,41861.8,41861.8,
440.2,41429.4,41429.4,
439.8,41888.2,41888.2,
439.4,41661.8,41661.8,
439,41555.9,41555.9,
438.6,42247.1,42247.1,
438.2,41358.8,41358.8,
437.8,41511.8,41511.8,
437.4,41591.2,41591.2,
437,41514.7,41514.7,
436.6,41802.9,41802.9,
436.2,41920.6,41920.6,
435.8,42352.9,42352.9,
435.4,42167.6,42167.6,
435,41826.5,41826.5,
434.6,41644.1,41644.1,
434.2,41711.8,41711.8,
433.8,41894.1,41894.1,
433.4,41888.2,41888.2,
433,41370.6,41370.6,
432.6,41726.5,41726.5,
432.2,41888.2,41888.2,
431.8,41626.5,41626.5,
431.4,41661.8,41661.8,
431,41285.3,41285.3,
430.6,41514.7,41514.7,
430.2,41867.6,41867.6,
429.8,41750,41750,
429.4,41885.3,41885.3,
429,42047.1,42047.1,
428.6,42064.7,42064.7,
428.2,41923.5,41923.5,
427.8,41347.1,41347.1,
427.4,41205.9,41205.9,
427,41991.2,41991.2,
426.6,41623.5,41623.5,
426.2,42505.9,42505.9,
425.8,41364.7,41364.7,
425.4,42164.7,42164.7,
425,42208.8,42208.8,
424.6,41952.9,41952.9,
424.2,41997.1,41997.1,
423.8,42373.5,42373.5,
423.4,41470.6,41470.6,
423,42250,42250,
422.6,41835.3,41835.3,
422.2,41391.2,41391.2,
421.8,42123.5,42123.5,
421.4,41585.3,41585.3,
421,41744.1,41744.1,
420.6,42023.5,42023.5,
420.2,41302.9,41302.9,
419.8,41626.5,41626.5,
419.4,42026.5,42026.5,
419,41714.7,41714.7,
418.6,41735.3,41735.3,
418.2,41970.6,41970.6,
417.8,41094.1,41094.1,
417.4,41658.8,41658.8,
417,41726.5,41726.5,
416.6,41002.9,41002.9,
416.2,41523.5,41523.5,
415.8,41397.1,41397.1,
415.4,41608.8,41608.8,
415,41802.9,41802.9,
414.6,41814.7,41814.7,
414.2,41241.2,41241.2,
413.8,40505.9,40505.9,
413.4,40900,40900,
413,40985.3,40985.3,
412.6,40661.8,40661.8,
412.2,41511.8,41511.8,
411.8,41091.2,41091.2,
411.4,40717.6,40717.6,
411,41017.6,41017.6,
410.6,40652.9,40652.9,
410.2,41020.6,41020.6,
409.8,40558.8,40558.8,
409.4,40632.4,40632.4,
409,40076.5,40076.5,
408.6,40511.8,40511.8,
408.2,39958.8,39958.8,
407.8,40126.5,40126.5,
407.4,40658.8,40658.8,
407,40105.9,40105.9,
406.6,39905.9,39905.9,
406.2,39991.2,39991.2,
405.8,40414.7,40414.7,
405.4,40205.9,40205.9,
405,40332.4,40344.1,
404.6,40494.1,40343.4,
404.2,40558.8,40342.4,
403.8,41900,40335.3,
403.4,43408.8,40321.3,
403,46720.6,40292.2,
402.6,50226.5,40247,
402.2,51667.6,40195,
401.8,48644.1,40156.5,
401.4,44947.1,40134.7,
401,42694.1,40123.1,
400.6,42470.6,40112.4,
400.2,43685.3,40096.1,
399.8,46835.3,40065.4,
399.4,49526.5,40022.4,
399,51273.5,39971.1,
398.6,48594.1,39931.9,
398.2,44961.8,39909,
397.8,42364.7,39897.8,
397.4,41355.9,39891.2,
397,40361.8,39889,
396.6,39800,39888.6,
396.2,39585.3,39887.3,
395.8,40276.5,40276.5,
395.4,39791.2,39791.2,
395,39741.2,39741.2,
394.6,39814.7,39814.7,
394.2,39455.9,39455.9,
393.8,40276.5,40276.5,
393.4,40194.1,40194.1,
393,40544.1,40544.1,
392.6,40152.9,40152.9,
392.2,39802.9,39802.9,
391.8,39608.8,39608.8,
391.4,39394.1,39394.1,
391,39417.6,39417.6,
390.6,39655.9,39655.9,
390.2,39794.1,39794.1,
389.8,39435.3,39435.3,
389.4,39467.6,39467.6,
389,39547.1,39547.1,
388.6,38976.5,38976.5,
388.2,39238.2,39238.2,
387.8,39667.6,39667.6,
387.4,39776.5,39776.5,
387,39188.2,39188.2,
386.6,39097.1,39097.1,
386.2,39314.7,39314.7,
385.8,39864.7,39864.7,
385.4,39629.4,39629.4,
385,39514.7,39514.7,
384.6,39294.1,39294.1,
384.2,39500,39500,
383.8,38714.7,38714.7,
383.4,39152.9,39152.9,
383,39370.6,39370.6,
382.6,39132.4,39132.4,
382.2,39091.2,39091.2,
381.8,39382.4,39382.4,
381.4,39300,39300,
381,39438.2,39438.2,
380.6,38352.9,38352.9,
380.2,39135.3,39135.3,
379.8,38861.8,38861.8,
379.4,39329.4,39329.4,
379,38941.2,38941.2,
378.6,39661.8,39661.8,
378.2,39267.6,39267.6,
377.8,39426.5,39426.5,
377.4,39744.1,39744.1,
377,39441.2,39441.2,
376.6,38876.5,39240.4,
376.2,39450,39231.1,
375.8,38717.6,39210.1,
375.4,40226.5,39164.9,
375,39397.1,39154.6,
374.6,39811.8,39125.3,
374.2,40991.2,39042.3,
373.8,41426.5,38936.3,
373.4,41614.7,38817.2,
373,41155.9,38713.1,
372.6,39914.7,38659.7,
372.2,39720.6,38612.5,
371.8,38841.2,38602.3,
371.4,38861.8,38590.8,
371,38508.8,38587.5,
370.6,39161.8,38561.9,
370.2,38450,38557.3,
369.8,38344.1,38548.6,
369.4,38723.5,38540.8,
369,39070.6,38517.3,
368.6,39873.5,38457,
368.2,40961.8,38345.6,
367.8,42488.2,38161.3,
367.4,42620.6,37963,
367,40717.6,37840.4,
366.6,39197.1,37780.1,
366.2,38229.4,37760.1,
365.8,37802.9,37758.2,
365.4,38323.5,37733.1,
365,37717.6,37732.4,
364.6,37682.4,37730.4,
364.2,37791.2,37791.2,
363.8,37185.3,37185.3,
363.4,37888.2,37888.2,
363,38185.3,38185.3,
362.6,37955.9,37955.9,
362.2,38064.7,38064.7,
361.8,37208.8,37208.8,
361.4,38132.4,38132.4,
361,37167.6,37167.6,
360.6,38088.2,38088.2,
360.2,38350,38350,
359.8,38026.5,38026.5,
359.4,37905.9,37905.9,
359,37476.5,37476.5,
358.6,37982.4,37982.4,
358.2,37944.1,37944.1,
357.8,37744.1,37744.1,
357.4,38179.4,38179.4,
357,38270.6,38270.6,
356.6,38588.2,38588.2,
356.2,38708.8,38708.8,
355.8,39191.2,39191.2,
355.4,39488.2,39488.2,
355,39105.9,39105.9,
354.6,40238.2,40238.2,
354.2,39776.5,39776.5,
353.8,40361.8,40361.8,
353.4,41061.8,41061.8,
353,41376.5,41376.5,
352.6,41014.7,41014.7,
352.2,40435.3,40435.3,
351.8,39176.5,39176.5,
351.4,39405.9,39405.9,
351,39058.8,39058.8,
350.6,38147.1,38147.1,
350.2,37376.5,37376.5,
349.8,37126.5,37126.5,
349.4,37402.9,37402.9,
349,37088.2,37088.2,
348.6,35994.1,35994.1,
348.2,36273.5,36273.5,
347.8,36214.7,36214.7,
347.4,36032.4,36032.4,
347,36014.7,36014.7,
346.6,35976.5,35976.5,
346.2,35779.4,35779.4,
345.8,35720.6,35720.6,
345.4,35226.5,35226.5,
345,34694.1,34694.1,
344.6,34782.4,34782.4,
344.2,34952.9,34952.9,
343.8,34820.6,34820.6,
343.4,35067.6,35067.6,
343,34997.1,34997.1,
342.6,34426.5,34426.5,
342.2,34920.6,34920.6,
341.8,34052.9,34052.9,
341.4,35226.5,35226.5,
341,34882.4,34882.4,
340.6,34905.9,34905.9,
340.2,35335.3,35335.3,
339.8,34532.4,34532.4,
339.4,34976.5,34976.5,
339,35652.9,35652.9,
338.6,35647.1,35647.1,
338.2,36891.2,36891.2,
337.8,36800,36800,
337.4,37229.4,37229.4,
337,38200,38200,
336.6,38435.3,38435.3,
336.2,40176.5,40176.5,
335.8,40585.3,40585.3,
335.4,41938.2,41938.2,
335,40979.4,40979.4,
334.6,41602.9,41602.9,
334.2,40632.4,40632.4,
333.8,39105.9,39105.9,
333.4,38341.2,38341.2,
333,37076.5,37076.5,
332.6,36529.4,36529.4,
332.2,36291.2,36291.2,
331.8,35414.7,35414.7,
331.4,35091.2,35091.2,
331,34600,34600,
330.6,34123.5,34123.5,
330.2,34226.5,34226.5,
329.8,33926.5,33926.5,
329.4,33423.5,33423.5,
329,33429.4,33429.4,
328.6,33658.8,33658.8,
328.2,33238.2,33238.2,
327.8,33126.5,33126.5,
327.4,32294.1,32294.1,
327,33176.5,33176.5,
326.6,32955.9,32955.9,
326.2,33029.4,33029.4,
325.8,32050,32050,
325.4,32841.2,32841.2,
325,32252.9,32252.9,
324.6,32382.4,32382.4,
324.2,32823.5,32823.5,
323.8,32673.5,32673.5,
323.4,32779.4,32779.4,
323,32623.5,32623.5,
322.6,32923.5,32923.5,
322.2,32911.8,32911.8,
321.8,32744.1,32744.1,
321.4,32594.1,32594.1,
321,32829.4,32829.4,
320.6,32417.6,32417.6,
320.2,32767.6,32767.6,
319.8,32397.1,32397.1,
319.4,33185.3,33185.3,
319,32623.5,32623.5,
318.6,33129.4,33129.4,
318.2,32894.1,32894.1,
317.8,32791.2,32791.2,
317.4,33344.1,33344.1,
317,32917.6,32917.6,
316.6,33147.1,33147.1,
316.2,32497.1,32497.1,
315.8,32782.4,32782.4,
315.4,32614.7,32614.7,
315,33402.9,33402.9,
314.6,32585.3,32585.3,
314.2,33470.6,33470.6,
313.8,33232.4,33232.4,
313.4,33341.2,33341.2,
313,33429.4,33429.4,
312.6,33423.5,33423.5,
312.2,33585.3,33585.3,
311.8,34067.6,34067.6,
311.4,33241.2,33241.2,
311,33129.4,33129.4,
310.6,33361.8,33361.8,
310.2,32994.1,32994.1,
309.8,32967.6,32967.6,
309.4,33161.8,33161.8,
309,33250,33250,
308.6,33523.5,33523.5,
308.2,34117.6,34117.6,
307.8,33700,33700,
307.4,33191.2,33191.2,
307,33341.2,33341.2,
306.6,32908.8,32908.8,
306.2,34176.5,34176.5,
305.8,33485.3,33485.3,
305.4,33797.1,33797.1,
305,33655.9,33655.9,
304.6,33379.4,33379.4,
304.2,33755.9,33755.9,
303.8,32870.6,32870.6,
303.4,32717.6,32717.6,
303,32679.4,32679.4,
302.6,33050,33050,
302.2,32420.6,32420.6,
301.8,32547.1,32547.1,
301.4,31961.8,31961.8,
301,31555.9,31555.9,
300.6,31291.2,31291.2,
300.2,30755.9,30755.9,
299.8,30208.8,30208.8,
299.4,29850,29850,
299,30358.8,30358.8,
298.6,29629.4,29629.4,
298.2,29011.8,29011.8,
297.8,29132.4,29132.4,
297.4,29073.5,29073.5,
297,28347.1,28347.1,
296.6,28294.1,28294.1,
296.2,27741.2,27741.2,
295.8,27702.9,27702.9,
295.4,27685.3,27685.3,
295,27355.9,27355.9,
294.6,27161.8,27161.8,
294.2,27861.8,27861.8,
293.8,29111.8,29111.8,
293.4,32173.5,32173.5,
293,37561.8,37561.8,
292.6,39661.8,39661.8,
292.2,36688.2,36688.2,
291.8,31847.1,31847.1,
291.4,28255.9,28255.9,
291,26976.5,26976.5,
290.6,26952.9,26952.9,
290.2,26541.2,26773.3,
289.8,26826.5,26773.3,
289.4,26697.1,26773.2,
289,28829.4,26771.3,
288.6,29344.1,26768.9,
288.2,31123.5,26764.8,
287.8,33638.2,26758.4,
287.4,39438.2,26746.6,
287,49720.6,26725.2,
286.6,61264.7,26693.1,
286.2,68044.1,26654.5,
285.8,72750,26611.6,
285.4,77205.9,26564.5,
285,81350,26513.5,
284.6,76244.1,26467.2,
284.2,60788.2,26435.2,
283.8,43935.3,26418.9,
283.4,33532.4,26412.3,
283,29767.6,26409.1,
282.6,27800,26407.8,
282.2,27135.3,26407.2,
281.8,26573.5,26407,
281.4,26247.1,26406.9,
281,26400,26400,
280.6,25932.4,25932.4,
280.2,25523.5,25523.5,
279.8,25252.9,25252.9,
279.4,25038.2,25038.2,
279,25211.8,25211.8,
278.6,25085.3,25085.3,
278.2,25217.6,25217.6,
277.8,25197.1,25197.1,
277.4,24932.4,24932.4,
277,25376.5,25376.5,
276.6,24702.9,24702.9,
276.2,24861.8,24861.8,
275.8,25079.4,25079.4,
275.4,25326.5,25326.5,
275,24697.1,24697.1,
274.6,25114.7,25114.7,
274.2,24302.9,24302.9,
273.8,24800,24800,
273.4,24876.5,24876.5,
273,24697.1,24697.1,
272.6,24908.8,24908.8,
272.2,25073.5,25073.5,
271.8,24897.1,24897.1,
271.4,24852.9,24852.9,
271,24264.7,24264.7,
270.6,24585.3,24585.3,
270.2,24808.8,24808.8,
269.8,24644.1,24644.1,
269.4,24611.8,24611.8,
269,24641.2,24641.2,
268.6,24455.9,24455.9,
268.2,25091.2,25091.2,
267.8,24767.6,24767.6,
267.4,25326.5,25326.5,
267,25029.4,25029.4,
266.6,25308.8,25308.8,
266.2,24611.8,24611.8,
265.8,24920.6,24920.6,
265.4,24488.2,24488.2,
265,24547.1,24547.1,
264.6,24782.4,24782.4,
264.2,24941.2,24941.2,
263.8,24332.4,24332.4,
263.4,24297.1,24297.1,
263,24191.2,24191.2,
262.6,24794.1,24794.1,
262.2,24894.1,24894.1,
261.8,24829.4,24829.4,
261.4,24850,24850,
261,24547.1,24547.1,
260.6,24708.8,24708.8,
260.2,24523.5,24523.5,
259.8,25005.9,25005.9,
259.4,24714.7,24714.7,
259,25279.4,25279.4,
258.6,24711.8,24711.8,
258.2,25264.7,25264.7,
257.8,25135.3,25135.3,
257.4,24338.2,24338.2,
257,24644.1,24644.1,
256.6,24829.4,24829.4,
256.2,24858.8,24858.8,
255.8,24635.3,24635.3,
255.4,24514.7,24514.7,
255,24964.7,24964.7,
254.6,24635.3,24635.3,
254.2,25232.4,25232.4,
253.8,24797.1,24797.1,
253.4,24741.2,24741.2,
253,24326.5,24326.5,
252.6,24591.2,24591.2,
252.2,24444.1,24444.1,
251.8,24641.2,24641.2,
251.4,24364.7,24364.7,
251,25308.8,25308.8,
250.6,24641.2,24641.2,
250.2,24538.2,24538.2,
249.8,24894.1,24894.1,
249.4,24426.5,24426.5,
249,24923.5,24923.5,
248.6,24535.3,24535.3,
248.2,24241.2,24241.2,
247.8,23897.1,23897.1,
247.4,24444.1,24444.1,
247,24188.2,24188.2,
246.6,24085.3,24085.3,
246.2,23697.1,23697.1,
245.8,23876.5,23876.5,
245.4,23947.1,23947.1,
245,23926.5,23926.5,
244.6,24117.6,24117.6,
244.2,23900,23900,
243.8,23973.5,23973.5,
243.4,23682.4,23682.4,
243,23594.1,23594.1,
242.6,23864.7,23864.7,
242.2,23858.8,23858.8,
241.8,23488.2,23488.2,
241.4,23835.3,23835.3,
241,23382.4,23382.4,
240.6,23626.5,23626.5,
240.2,23564.7,23564.7,
239.8,23223.5,23223.5,
239.4,23773.5,23773.5,
239,23538.2,23538.2,
238.6,23644.1,23644.1,
238.2,23326.5,23326.5,
237.8,23635.3,23635.3,
237.4,23497.1,23497.1,
237,24305.9,24305.9,
236.6,24111.8,24111.8,
236.2,24285.3,24285.3,
235.8,24350,24350,
235.4,25000,25000,
235,25985.3,25985.3,
234.6,26176.5,26176.5,
234.2,28020.6,28020.6,
233.8,29479.4,29479.4,
233.4,31208.8,31208.8,
233,32817.6,32817.6,
232.6,33117.6,33117.6,
232.2,31652.9,31652.9,
231.8,29485.3,29485.3,
231.4,28252.9,28252.9,
231,27011.8,27011.8,
230.6,25714.7,25714.7,
230.2,25364.7,25364.7,
229.8,24761.8,24761.8,
229.4,24235.3,24235.3,
229,23723.5,23723.5,
228.6,23938.2,23938.2,
228.2,23814.7,23814.7,
227.8,23232.4,23232.4,
227.4,23547.1,23547.1,
227,22855.9,22855.9,
226.6,22944.1,22944.1,
226.2,23067.6,23067.6,
225.8,22829.4,22829.4,
225.4,23191.2,23191.2,
225,22952.9,22952.9,
224.6,22811.8,22811.8,
224.2,22776.5,22776.5,
223.8,22550,22550,
223.4,23002.9,23002.9,
223,22688.2,22688.2,
222.6,22350,22350,
222.2,22538.2,22538.2,
221.8,22835.3,22835.3,
221.4,22658.8,22658.8,
221,22350,22350,
220.6,22717.6,22717.6,
220.2,21732.4,21732.4,
219.8,22876.5,22876.5,
219.4,22714.7,22714.7,
219,22673.5,22673.5,
218.6,22444.1,22444.1,
218.2,21961.8,21961.8,
217.8,22394.1,22394.1,
217.4,22426.5,22426.5,
217,22305.9,22305.9,
216.6,22638.2,22638.2,
216.2,22026.5,22026.5,
215.8,22250,22250,
215.4,22264.7,22264.7,
215,22032.4,22032.4,
214.6,22344.1,22344.1,
214.2,22232.4,22232.4,
213.8,22055.9,22055.9,
213.4,22285.3,22285.3,
213,22329.4,22329.4,
212.6,22055.9,22055.9,
212.2,21682.4,21682.4,
211.8,21988.2,21988.2,
211.4,22241.2,22241.2,
211,22494.1,22494.1,
210.6,22067.6,22067.6,
210.2,21855.9,21855.9,
209.8,22147.1,22147.1,
209.4,22138.2,22138.2,
209,21705.9,21705.9,
208.6,21900,21900,
208.2,21785.3,21785.3,
207.8,21552.9,21552.9,
207.4,21867.6,21867.6,
207,21305.9,21305.9,
206.6,21635.3,21635.3,
206.2,21464.7,21464.7,
205.8,21720.6,21720.6,
205.4,21497.1,21497.1,
205,21285.3,21285.3,
204.6,21729.4,21729.4,
204.2,22108.8,22108.8,
203.8,21861.8,21861.8,
203.4,21544.1,21544.1,
203,20938.2,20938.2,
202.6,21514.7,21514.7,
202.2,21567.6,21567.6,
201.8,21629.4,21629.4,
201.4,21317.6,21317.6,
201,21402.9,21402.9,
200.6,21420.6,21420.6,
200.2,21402.9,21402.9,
199.8,21255.9,21255.9,
199.4,21591.2,21591.2,
199,21405.9,21405.9,
198.6,21708.8,21708.8,
198.2,21102.9,21102.9,
197.8,21623.5,21623.5,
197.4,21326.5,21326.5,
197,21358.8,21358.8,
196.6,21635.3,21635.3,
196.2,21241.2,21241.2,
195.8,21094.1,21094.1,
195.4,21744.1,21744.1,
195,21655.9,21655.9,
194.6,21508.8,21508.8,
194.2,21467.6,21467.6,
193.8,21861.8,21861.8,
193.4,21379.4,21379.4,
193,21723.5,21723.5,
192.6,21858.8,21858.8,
192.2,21794.1,21794.1,
191.8,21176.5,21176.5,
191.4,21873.5,21873.5,
191,21300,21300,
190.6,21591.2,21591.2,
190.2,21355.9,21355.9,
189.8,21014.7,21014.7,
189.4,21176.5,21176.5,
189,21350,21350,
188.6,21200,21200,
188.2,21138.2,21138.2,
187.8,21394.1,21394.1,
187.4,21123.5,21123.5,
187,20708.8,20708.8,
186.6,20752.9,20752.9,
186.2,20800,20800,
185.8,20567.6,20567.6,
185.4,20738.2,20738.2,
185,21067.6,21067.6,
184.6,20497.1,20497.1,
184.2,20411.8,20411.8,
183.8,20323.5,20323.5,
183.4,20402.9,20402.9,
183,19920.6,19920.6,
182.6,20408.8,20408.8,
182.2,19779.4,19779.4,
181.8,20482.4,20482.4,
181.4,19879.4,19879.4,
181,19626.5,19626.5,
180.6,19682.4,19682.4,
180.2,19752.9,19752.9,
179.8,19852.9,19852.9,
179.4,19923.5,19923.5,
179,19835.3,19835.3,
178.6,19491.2,19491.2,
178.2,19405.9,19405.9,
177.8,19173.5,19173.5,
177.4,18914.7,18914.7,
177,18926.5,18926.5,
176.6,18994.1,18994.1,
176.2,18829.4,18829.4,
175.8,18761.8,18761.8,
175.4,18879.4,18879.4,
175,18738.2,18738.2,
174.6,18555.9,18555.9,
174.2,18405.9,18405.9,
173.8,18361.8,18361.8,
173.4,18591.2,18591.2,
173,18776.5,18776.5,
172.6,18532.4,18532.4,
172.2,19014.7,19014.7,
171.8,18820.6,18820.6,
171.4,19905.9,19905.9,
171,21164.7,21164.7,
170.6,24750,24750,
170.2,28088.2,28088.2,
169.8,31961.8,31961.8,
169.4,34247.1,34247.1,
169,37744.1,37744.1,
168.6,37805.9,37805.9,
168.2,32979.4,32979.4,
167.8,26485.3,26485.3,
167.4,21585.3,21585.3,
167,20261.8,20261.8,
166.6,19194.1,19194.1,
166.2,18741.2,18741.2,
165.8,18500,18500,
165.4,18494.1,18494.1,
165,18302.9,18302.9,
164.6,17805.9,17805.9,
164.2,17908.8,17908.8,
163.8,17685.3,17685.3,
163.4,17658.8,17658.8,
163,17811.8,17811.8,
162.6,17935.3,17935.3,
162.2,17994.1,17994.1,
161.8,17829.4,17829.4,
161.4,17705.9,17705.9,
161,17729.4,17729.4,
160.6,17558.8,17558.8,
160.2,17923.5,17923.5,
159.8,17511.8,17511.8,
159.4,17232.4,17232.4,
159,17617.6,17617.6,
158.6,17258.8,17258.8,
158.2,17411.8,17411.8,
157.8,17361.8,17361.8,
157.4,17444.1,17444.1,
157,17497.1,17497.1,
156.6,16864.7,16864.7,
156.2,17211.8,17211.8,
155.8,16941.2,16941.2,
155.4,16908.8,16908.8,
155,17673.5,17673.5,
154.6,17294.1,17294.1,
154.2,17800,17800,
153.8,17529.4,17529.4,
153.4,17602.9,17602.9,
153,17752.9,17752.9,
152.6,17741.2,17741.2,
152.2,17408.8,17408.8,
151.8,17491.2,17491.2,
151.4,16964.7,16964.7,
151,17188.2,17188.2,
150.6,17123.5,17123.5,
150.2,16829.4,16829.4,
149.8,16891.2,16891.2,
149.4,16917.6,16917.6,
149,16879.4,16879.4,
148.6,16911.8,16911.8,
148.2,17161.8,17161.8,
147.8,16547.1,16547.1,
147.4,16817.6,16817.6,
147,16547.1,16547.1,
146.6,16720.6,16720.6,
146.2,16717.6,16717.6,
145.8,16705.9,16705.9,
145.4,16391.2,16391.2,
145,16529.4,16529.4,
144.6,16444.1,16444.1,
144.2,16002.9,16002.9,
143.8,16279.4,16279.4,
143.4,16694.1,16694.1,
143,16552.9,16552.9,
142.6,16123.5,16123.5,
142.2,16329.4,16329.4,
141.8,16229.4,16229.4,
141.4,16500,16500,
141,16170.6,16170.6,
140.6,16176.5,16176.5,
140.2,16138.2,16138.2,
139.8,16532.4,16532.4,
139.4,16264.7,16264.7,
139,16273.5,16273.5,
138.6,16135.3,16135.3,
138.2,16223.5,16223.5,
137.8,15961.8,15961.8,
137.4,16476.5,16476.5,
137,15955.9,15955.9,
136.6,15750,15750,
136.2,15791.2,15791.2,
135.8,15217.6,15217.6,
135.4,15700,15700,
135,15691.2,15691.2,
134.6,15688.2,15688.2,
134.2,15717.6,15717.6,
133.8,15985.3,15985.3,
133.4,15382.4,15382.4,
133,15708.8,15708.8,
132.6,15608.8,15608.8,
132.2,15394.1,15394.1,
131.8,15591.2,15591.2,
131.4,15567.6,15567.6,
131,15347.1,15347.1,
130.6,15317.6,15317.6,
130.2,14982.4,14982.4,
129.8,15652.9,15652.9,
129.4,15379.4,15379.4,
129,15632.4,15632.4,
128.6,15314.7,15314.7,
128.2,15197.1,15197.1,
127.8,15164.7,15164.7,
127.4,15326.5,15326.5,
127,15323.5,15323.5,
126.6,14970.6,14970.6,
126.2,14923.5,14923.5,
125.8,14902.9,14902.9,
125.4,14894.1,14894.1,
125,14605.9,14605.9,
124.6,14579.4,14579.4,
124.2,14855.9,14855.9,
123.8,14782.4,14782.4,
123.4,14870.6,14870.6,
123,14802.9,14802.9,
122.6,14694.1,14694.1,
122.2,14711.8,14711.8,
121.8,14979.4,14979.4,
121.4,14426.5,14426.5,
121,14135.3,14135.3,
120.6,14514.7,14514.7,
120.2,14352.9,14352.9,
119.8,14308.8,14308.8,
119.4,14176.5,14176.5,
119,14435.3,14435.3,
118.6,14361.8,14361.8,
118.2,14008.8,14008.8,
117.8,14282.4,14282.4,
117.4,14338.2,14338.2,
117,14276.5,14276.5,
116.6,14291.2,14291.2,
116.2,14052.9,14052.9,
115.8,14394.1,14394.1,
115.4,14167.6,14167.6,
115,14458.8,14458.8,
114.6,14041.2,14041.2,
114.2,14500,14500,
113.8,14123.5,14123.5,
113.4,14520.6,14520.6,
113,14385.3,14385.3,
112.6,14732.4,14732.4,
112.2,14314.7,14314.7,
111.8,15117.6,15117.6,
111.4,14505.9,14505.9,
111,14611.8,14611.8,
110.6,14591.2,14591.2,
110.2,14464.7,14464.7,
109.8,14385.3,14385.3,
109.4,14282.4,14282.4,
109,14679.4,14679.4,
108.6,14002.9,14002.9,
108.2,13873.5,13873.5,
107.8,14326.5,14326.5,
107.4,14002.9,14002.9,
107,14494.1,14494.1,
106.6,13888.2,13888.2,
106.2,13688.2,13688.2,
105.8,13967.6,13967.6,
105.4,13582.4,13582.4,
105,13355.9,13355.9,
104.6,13302.9,13302.9,
104.2,13302.9,13302.9,
103.8,13408.8,13408.8,
103.4,13217.6,13217.6,
103,13311.8,13311.8,
102.6,13223.5,13223.5,
102.2,13397.1,13397.1,
101.8,13558.8,13558.8,
101.4,12897.1,12897.1,
101,12197.1,12197.1,
100.6,12144.1,12144.1,
100.2,11520.6,11520.6,
99.8,11450,11450,
99.4,11388.2,11388.2,
99,11182.4,11182.4,
98.6,11394.1,11394.1,
98.2,10835.3,10835.3,
97.8,10550,10550,
97.4,10300,10300,
97,10341.2,10341.2,
96.6,9952.94,9952.94,
96.2,9650,9650,
95.8,9667.65,9667.65,
95.4,9358.82,9358.82,
95,9085.29,9085.29,
94.6,9158.82,9158.82,
94.2,8820.59,8820.59,
93.8,8702.94,8702.94,
93.4,8932.35,8932.35,
93,8808.82,8808.82,
92.6,8641.18,8641.18,
92.2,8338.24,8489.41,
91.8,8494.12,8489.35,
91.4,8867.65,8484.88,
91,8908.82,8479.87,
90.6,9267.65,8470.56,
90.2,9402.94,8459.54,
89.8,10100,8440.15,
89.4,10458.8,8416.28,
89,12229.4,8371.21,
88.6,14985.3,8293.03,
88.2,23941.2,8108.05,
87.8,32273.5,7822.4,
87.4,32967.6,7525.16,
87,23476.5,7336.6,
86.6,15135.3,7244.42,
86.2,11476.5,7194.39,
85.8,10752.9,7152.33,
85.4,12076.5,7094.12,
85,15605.9,6993.5,
84.6,24038.2,6792.02,
84.2,36073.5,6445.89,
83.8,38744.1,6064.1,
83.4,28352.9,5800.63,
83,15994.1,5680.13,
82.6,9629.41,5633.45,
82.2,7526.47,5611.07,
81.8,6641.18,5598.9,
81.4,5844.12,5596,
81,5858.82,5592.89,
80.6,5529.41,5592.16,
80.2,5388.24,5388.24,
79.8,5358.82,5358.82,
79.4,4941.18,4941.18,
79,4941.18,4941.18,
78.6,4982.35,4982.35,
78.2,4882.35,4882.35,
77.8,4679.41,4679.41,
77.4,4705.88,4705.88,
77,4797.06,4797.06,
76.6,4855.88,4855.88,
76.2,4797.06,4797.06,
75.8,4667.65,4667.65,
75.4,4667.65,4667.65,
75,4758.82,4758.82,
74.6,4750,4750,
74.2,4591.18,4591.18,
73.8,4794.12,4794.12,
73.4,4667.65,4667.65,
73,4420.59,4420.59,
72.6,4685.29,4685.29,
72.2,4497.06,4497.06,
71.8,4576.47,4576.47,
71.4,4302.94,4302.94,
71,4247.06,4247.06,
70.6,4338.24,4338.24,
70.2,4188.24,4188.24,
69.8,4017.65,4017.65,
69.4,3970.59,3970.59,
69,4161.76,4161.76,
68.6,4088.24,4088.24,
68.2,4291.18,4291.18,
67.8,3947.06,3947.06,
67.4,4017.65,4017.65,
67,4044.12,4044.12,
66.6,4308.82,4308.82,
66.2,4276.47,4276.47,
65.8,4085.29,4085.29,
65.4,4176.47,4176.47,
65,4035.29,4035.29,
64.6,4238.24,4238.24,
64.2,4300,4300,
63.8,4817.65,4817.65,
63.4,4835.29,4835.29,
63,5079.41,5079.41,
62.6,4802.94,4802.94,
62.2,4626.47,4626.47,
61.8,4447.06,4447.06,
61.4,4338.24,4338.24,
61,4305.88,4305.88,
60.6,4470.59,4470.59,
60.2,4370.59,4370.59,
59.8,4314.71,4314.71,
59.4,4623.53,4623.53,
59,4547.06,4547.06,
58.6,4714.71,4714.71,
58.2,4535.29,4535.29,
57.8,4652.94,4652.94,
57.4,4620.59,4620.59,
57,4823.53,4823.53,
56.6,4791.18,4791.18,
56.2,4770.59,4770.59,
55.8,4482.35,4482.35,
55.4,4488.24,4488.24,
55,4320.59,4320.59,
54.6,4235.29,4235.29,
54.2,4350,4350,
53.8,4091.18,4091.18,
53.4,4076.47,4076.47,
53,3941.18,3941.18,
52.6,3720.59,3720.59,
52.2,3747.06,3747.06,
51.8,3914.71,3914.71,
51.4,3550,3550,
51,3455.88,3455.88,
50.6,3547.06,3547.06,
50.2,3585.29,3585.29,
49.8,3470.59,3470.59,
49.4,3220.59,3220.59,
49,3573.53,3573.53,
48.6,3441.18,3441.18,
48.2,3382.35,3382.35,
47.8,3408.82,3408.82,
47.4,3279.41,3279.41,
47,3391.18,3391.18,
46.6,3379.41,3379.41,
46.2,3220.59,3220.59,
45.8,3400,3400,
45.4,3338.24,3338.24,
45,3385.29,3385.29,
44.6,3150,3150,
44.2,3229.41,3229.41,
43.8,3135.29,3135.29,
43.4,3082.35,3082.35,
43,3135.29,3135.29,
42.6,2994.12,2994.12,
42.2,3188.24,3188.24,
41.8,3082.35,3082.35,
41.4,3247.06,3247.06,
41,2876.47,2876.47,
40.6,3344.12,3344.12,
40.2,2970.59,2970.59,
39.8,3120.59,3120.59,
39.4,3220.59,3220.59,
39,3373.53,3373.53,
38.6,3347.06,3347.06,
38.2,3661.76,3661.76,
37.8,3452.94,3452.94,
37.4,4032.35,4032.35,
37,4188.24,4188.24,
36.6,4694.12,4694.12,
36.2,4641.18,4641.18,
35.8,4588.24,4588.24,
35.4,4685.29,4685.29,
35,4861.76,4861.76,
34.6,5170.59,5170.59,
34.2,5485.29,5485.29,
33.8,5388.24,5388.24,
33.4,5561.76,5561.76,
33,5229.41,5229.41,
32.6,4952.94,4952.94,
32.2,4744.12,4744.12,
31.8,4244.12,4244.12,
31.4,4182.35,4182.35,
31,3988.24,3988.24,
30.6,4014.71,4014.71,
30.2,3908.82,3908.82,
29.8,3782.35,3782.35,
29.4,3623.53,3623.53,
29,3541.18,3541.18,
28.6,3611.76,3611.76,
28.2,3426.47,3426.47,
27.8,3388.24,3388.24,
27.4,3223.53,3223.53,
27,3320.59,3320.59,
26.6,3252.94,3252.94,
26.2,3329.41,3329.41,
25.8,3182.35,3182.35,
25.4,3400,3400,
25,3238.24,3238.24,
24.6,3261.76,3261.76,
24.2,3135.29,3135.29,
23.8,2891.18,2891.18,
23.4,2905.88,2905.88,
23,2467.65,2467.65,
22.6,2420.59,2420.59,
22.2,2320.59,2320.59,
21.8,2220.59,2220.59,
21.4,2197.06,2197.06,
21,2185.29,2185.29,
20.6,2152.94,2152.94,
20.2,2352.94,2352.94,
19.8,2702.94,2702.94,
19.4,2852.94,2852.94,
19,3044.12,3044.12,
18.6,3097.06,3097.06,
18.2,3047.06,3047.06,
17.8,2797.06,2797.06,
17.4,2561.76,2561.76,
17,2567.65,2567.65,
16.6,2544.12,2544.12,
16.2,2382.35,2382.35,
15.8,2476.47,2476.47,
15.4,2782.35,2782.35,
15,2917.65,2917.65,
14.6,2705.88,2705.88,
14.2,2279.41,2279.41,
13.8,2208.82,2208.82,
13.4,1982.35,1982.35,
13,1911.76,1911.76,
12.6,2155.88,2155.88,
12.2,2482.35,2482.35,
11.8,2735.29,2735.29,
11.4,2873.53,2873.53,
11,3211.76,3211.76,
10.6,3155.88,3155.88,
10.2,3373.53,3373.53,
9.8,2838.24,2838.24,
9.4,2352.94,2352.94,
9,2038.24,2038.24,
8.6,1826.47,1826.47,
8.2,1905.88,1905.88,
7.8,2176.47,2176.47,
7.4,2517.65,2517.65,
7,3247.06,3247.06,
6.6,3370.59,3370.59,
6.2,3732.35,3732.35,
5.8,3591.18,3591.18,
5.4,3291.18,3291.18,
5,3205.88,3205.88,
4.6,3158.82,3158.82,
4.2,3276.47,3276.47,
3.8,3305.88,3305.88,
3.4,3300,3300,
3,3047.06,3047.06,
2.6,2826.47,2826.47,
2.2,2238.24,2238.24,
1.8,1370.59,1370.59,
1.4,929.412,929.412,
1,605.882,605.882,
0.6,614.706,614.706,
0.2,526.471,526.471,
-0.2,355.882,355.882,
-0.6,264.706,264.706,
