,,,,,
,,,,,
Characteristic Energy eV,1486.6,Acquisition Time s,3.75,,
BE_S 2p 3,CPS_S 2p 3,S 2p_1_S 2p 3,S 2p_2_S 2p 3,Background_S 2p 3,Envelope_S 2p 3
177.9,4806.67,4807.03,4806.95,4806.67,4807.31
177.775,4719.2,4719.58,4719.5,4719.2,4719.87
177.65,4794.93,4795.33,4795.24,4794.93,4795.64
177.525,4708,4708.41,4708.33,4708,4708.74
177.4,4745.33,4745.77,4745.68,4745.33,4746.11
177.275,4765.07,4765.52,4765.43,4765.07,4765.88
177.15,4788,4788.47,4788.38,4788,4788.86
177.025,4720.53,4721.03,4720.94,4720.53,4721.43
176.9,4738.67,4739.19,4739.09,4738.67,4739.61
176.775,4693.6,4694.15,4694.06,4693.6,4694.6
176.65,4729.6,4730.18,4730.08,4729.6,4730.66
176.525,4756,4756.6,4756.51,4756,4757.12
176.4,4739.73,4740.36,4740.28,4739.73,4740.91
176.275,4736,4736.67,4736.58,4736,4737.24
176.15,4671.73,4672.44,4672.35,4671.73,4673.06
176.025,4650.13,4650.88,4650.8,4650.13,4651.54
175.9,4659.47,4660.25,4660.17,4659.47,4660.96
175.775,4665.87,4666.69,4666.62,4665.87,4667.44
175.65,4714.67,4715.54,4715.47,4714.67,4716.35
175.525,4617.07,4618,4617.94,4617.07,4618.87
175.4,4722.67,4723.66,4723.61,4722.67,4724.6
175.275,4672.27,4673.32,4673.28,4672.27,4674.32
175.15,4628.53,4629.64,4629.61,4628.53,4630.72
175.025,4574.67,4575.85,4575.83,4574.67,4577.02
174.9,4651.47,4652.74,4652.75,4651.47,4654.02
174.775,4567.73,4569.09,4569.13,4567.73,4570.49
174.65,4568.8,4570.25,4570.28,4568.8,4571.72
174.525,4565.6,4567.13,4567.21,4565.6,4568.74
174.4,4594.4,4596.06,4596.16,4594.4,4597.82
174.275,4548,4549.8,4549.93,4548,4551.73
174.15,4552.27,4554.2,4554.4,4552.27,4556.33
174.025,4548.27,4550.34,4550.62,4548.27,4552.69
173.9,4590.4,4592.61,4593,4590.4,4595.21
173.775,4638.13,4640.55,4641.03,4638.13,4643.45
173.65,4601.33,4603.99,4604.57,4601.33,4607.22
173.525,4596.27,4599.07,4599.89,4596.27,4602.7
173.4,4557.07,4560.12,4561.15,4557.07,4564.21
173.275,4605.07,4608.4,4609.69,4605.07,4613.03
173.15,4508.53,4512.19,4513.81,4508.53,4517.46
173.025,4543.2,4547.21,4549.25,4543.2,4553.26
172.9,4559.2,4563.62,4566.18,4559.2,4570.61
172.775,4601.07,4605.95,4609.2,4601.07,4614.09
172.65,4530.13,4535.56,4539.69,4530.13,4545.11
172.525,4614.13,4620.17,4625.49,4614.13,4631.53
172.4,4544.8,4551.55,4558.46,4544.8,4565.22
172.275,4616,4604.93,4614.03,4597.35,4621.62
172.15,4631.2,4605.94,4618.13,4597.37,4626.7
172.025,4652,4607.14,4623.84,4597.41,4633.57
171.9,4617.6,4608.53,4632.01,4597.42,4643.12
171.775,4555.2,4610.23,4644.11,4597.46,4656.88
171.65,4681.07,4612.31,4662.5,4597.52,4677.3
171.525,4650.93,4614.85,4690.82,4597.55,4708.11
171.4,4758.67,4618.07,4734.69,4597.67,4755.09
171.275,4732.53,4622.12,4801.62,4597.77,4825.98
171.15,4891.47,4627.44,4901.23,4597.98,4930.69
171.025,5033.33,4634.52,5043.57,4598.29,5079.79
170.9,5250.67,4644.21,5236.79,4598.76,5282.24
170.775,5513.33,4657.87,5483.34,4599.42,5541.79
170.65,5822.93,4677.66,5775.77,4600.3,5853.13
170.525,6152.53,4707.07,6093.9,4601.41,6199.56
170.4,6554.4,4751.78,6405.07,4602.82,6554.03
170.275,6956.8,4820.47,6668.7,4604.51,6884.66
170.15,7222.93,4925.67,6844.83,4606.4,7164.11
170.025,7379.73,5084.09,6904.39,4608.39,7380.09
169.9,7549.6,5315.56,6837.39,4610.51,7542.45
169.775,7678.93,5639.53,6655.77,4612.71,7682.59
169.65,7739.73,6068.7,6389.86,4614.96,7843.6
169.525,7976.27,6601.29,6080.17,4617.38,8064.08
169.4,8312.27,7213.01,5766.94,4620.04,8359.91
169.275,8669.33,7853.28,5481.85,4622.95,8712.18
169.15,9152.53,8449.09,5244.05,4626.21,9066.94
169.025,9439.73,8917.36,5059.72,4629.67,9347.42
168.9,9597.07,9184.31,4925.66,4633.24,9476.72
168.775,9452.53,9204.93,4833.19,4636.71,9401.41
168.65,9121.6,8976.12,4772.08,4639.93,9108.27
168.525,8492.27,8537.33,4732.81,4642.7,8627.43
168.4,7924.53,7959.45,4708,4645.06,8022.39
168.275,7210.4,7325.3,4692.23,4646.91,7370.62
168.15,6718.4,6710.39,4682.09,4648.4,6744.08
168.025,6208.8,6168.74,4675.34,4649.52,6194.56
167.9,5852.8,5728.26,4670.71,4650.39,5748.59
167.775,5573.07,5393.62,4667.42,4651.05,5409.99
167.65,5348.8,5153.42,4664.97,4651.55,5166.84
167.525,5213.6,4988.77,4663.12,4651.96,4999.94
167.4,5071.2,4879.68,4661.67,4652.26,4889.09
167.275,4967.73,4808.84,4660.5,4652.48,4816.86
167.15,4841.6,4763.07,4659.51,4652.62,4769.96
167.025,4844.27,4733.28,4658.73,4652.76,4739.25
166.9,4840.27,4713.48,4658.1,4652.89,4718.69
166.775,4808.27,4699.94,4657.58,4653,4704.52
166.65,4757.07,4690.38,4657.12,4653.08,4694.42
166.525,4745.6,4683.4,4656.73,4653.15,4686.99
166.4,4679.2,4678.13,4656.36,4653.16,4681.33
166.275,4726.13,4674.1,4656.08,4653.22,4676.96
166.15,4663.2,4670.89,4655.8,4653.22,4673.47
166.025,4645.07,4668.33,4655.56,4653.23,4670.66
165.9,4673.87,4666.27,4655.35,4653.24,4668.38
165.775,4640.8,4652.11,4642.72,4640.8,4654.03
165.65,4616.27,4626.16,4618.02,4616.27,4627.91
165.525,4570.13,4578.85,4571.73,4570.13,4580.44
165.4,4549.07,4556.78,4550.53,4549.07,4558.24
165.275,4515.2,4522.06,4516.59,4515.2,4523.45
165.15,4562.13,4568.26,4563.4,4562.13,4569.53
165.025,4596.53,4602.03,4597.69,4596.53,4603.19
164.9,4572.8,4577.76,4573.87,4572.8,4578.83
164.775,4553.6,4558.08,4554.6,4553.6,4559.08
164.65,4532.8,4536.87,4533.73,4532.8,4537.8
164.525,4576.8,4580.5,4577.67,4576.8,4581.37
164.4,4529.87,4533.24,4530.66,4529.87,4534.04
164.275,4611.2,4614.29,4611.95,4611.2,4615.04
164.15,4559.2,4562.04,4559.9,4559.2,4562.74
164.025,4559.2,4561.89,4559.86,4559.2,4562.54
163.9,4561.6,4564.05,4562.22,4561.6,4564.67
