,,
,,
Characteristic Energy eV,1486.6,Acquisition Time s
BE_Sur1 1,CPS_Sur1 1,Background_Sur1 1
1398.7,21358.8,21358.8
1398.3,21608.8,21608.8
1397.9,21835.3,21835.3
1397.5,21667.6,21667.6
1397.1,21714.7,21714.7
1396.7,21835.3,21835.3
1396.3,21929.4,21929.4
1395.9,21447.1,21447.1
1395.5,21570.6,21570.6
1395.1,21176.5,21176.5
1394.7,21455.9,21455.9
1394.3,21641.2,21641.2
1393.9,21411.8,21411.8
1393.5,21664.7,21664.7
1393.1,21600,21600
1392.7,21679.4,21679.4
1392.3,21641.2,21641.2
1391.9,21711.8,21711.8
1391.5,21529.4,21529.4
1391.1,21370.6,21370.6
1390.7,20950,20950
1390.3,21417.6,21417.6
1389.9,21417.6,21417.6
1389.5,21211.8,21211.8
1389.1,21314.7,21314.7
1388.7,21152.9,21152.9
1388.3,21617.6,21617.6
1387.9,21600,21600
1387.5,20955.9,20955.9
1387.1,21355.9,21355.9
1386.7,20723.5,20723.5
1386.3,20697.1,20697.1
1385.9,21555.9,21555.9
1385.5,21308.8,21308.8
1385.1,21270.6,21270.6
1384.7,21035.3,21035.3
1384.3,21141.2,21141.2
1383.9,21100,21100
1383.5,20973.5,20973.5
1383.1,20679.4,20679.4
1382.7,21314.7,21314.7
1382.3,21311.8,21311.8
1381.9,20794.1,20794.1
1381.5,20670.6,20670.6
1381.1,20738.2,20738.2
1380.7,20735.3,20735.3
1380.3,20950,20950
1379.9,20876.5,20876.5
1379.5,20620.6,20620.6
1379.1,20491.2,20491.2
1378.7,20838.2,20838.2
1378.3,21123.5,21123.5
1377.9,20961.8,20961.8
1377.5,20867.6,20867.6
1377.1,20808.8,20808.8
1376.7,20644.1,20644.1
1376.3,21002.9,21002.9
1375.9,20452.9,20452.9
1375.5,20611.8,20611.8
1375.1,20585.3,20585.3
1374.7,20382.4,20382.4
1374.3,20885.3,20885.3
1373.9,20247.1,20247.1
1373.5,20417.6,20417.6
1373.1,20070.6,20070.6
1372.7,20505.9,20505.9
1372.3,19955.9,19955.9
1371.9,20688.2,20688.2
1371.5,20267.6,20267.6
1371.1,19770.6,19770.6
1370.7,20782.4,20782.4
1370.3,20191.2,20191.2
1369.9,20417.6,20417.6
1369.5,20132.4,20132.4
1369.1,20555.9,20555.9
1368.7,20302.9,20302.9
1368.3,19870.6,19870.6
1367.9,19870.6,19870.6
1367.5,20117.6,20117.6
1367.1,19838.2,19838.2
1366.7,19988.2,19988.2
1366.3,20332.4,20332.4
1365.9,20155.9,20155.9
1365.5,20117.6,20117.6
1365.1,19985.3,19985.3
1364.7,19600,19600
1364.3,20167.6,20167.6
1363.9,19817.6,19817.6
1363.5,20035.3,20035.3
1363.1,19702.9,19702.9
1362.7,19517.6,19517.6
1362.3,19894.1,19894.1
1361.9,19497.1,19497.1
1361.5,19873.5,19873.5
1361.1,19950,19950
1360.7,19941.2,19941.2
1360.3,20164.7,20164.7
1359.9,20102.9,20102.9
1359.5,19388.2,19388.2
1359.1,19817.6,19817.6
1358.7,19297.1,19297.1
1358.3,19838.2,19838.2
1357.9,19447.1,19447.1
1357.5,19711.8,19711.8
1357.1,19938.2,19938.2
1356.7,19461.8,19461.8
1356.3,20264.7,20264.7
1355.9,19344.1,19344.1
1355.5,19655.9,19655.9
1355.1,19417.6,19417.6
1354.7,19550,19550
1354.3,19620.6,19620.6
1353.9,19991.2,19991.2
1353.5,19205.9,19205.9
1353.1,19026.5,19026.5
1352.7,19276.5,19276.5
1352.3,19541.2,19541.2
1351.9,19417.6,19417.6
1351.5,19682.4,19682.4
1351.1,18350,18350
1350.7,19067.6,19067.6
1350.3,19408.8,19408.8
1349.9,19338.2,19338.2
1349.5,19244.1,19244.1
1349.1,19241.2,19241.2
1348.7,18905.9,18905.9
1348.3,19220.6,19220.6
1347.9,18891.2,18891.2
1347.5,19058.8,19058.8
1347.1,18667.6,18667.6
1346.7,19058.8,19058.8
1346.3,18988.2,18988.2
1345.9,18864.7,18864.7
1345.5,18852.9,18852.9
1345.1,19091.2,19091.2
1344.7,18994.1,18994.1
1344.3,18902.9,18902.9
1343.9,18973.5,18973.5
1343.5,19261.8,19261.8
1343.1,19114.7,19114.7
1342.7,18697.1,18697.1
1342.3,18408.8,18408.8
1341.9,18844.1,18844.1
1341.5,18729.4,18729.4
1341.1,18785.3,18785.3
1340.7,18747.1,18747.1
1340.3,18700,18700
1339.9,18541.2,18541.2
1339.5,18664.7,18664.7
1339.1,18555.9,18555.9
1338.7,19064.7,19064.7
1338.3,18811.8,18811.8
1337.9,18685.3,18685.3
1337.5,18650,18650
1337.1,18538.2,18538.2
1336.7,18476.5,18476.5
1336.3,18620.6,18620.6
1335.9,18652.9,18652.9
1335.5,19097.1,19097.1
1335.1,18870.6,18870.6
1334.7,18894.1,18894.1
1334.3,18535.3,18535.3
1333.9,18685.3,18685.3
1333.5,19005.9,19005.9
1333.1,18591.2,18591.2
1332.7,18944.1,18944.1
1332.3,18814.7,18814.7
1331.9,18232.4,18232.4
1331.5,18532.4,18532.4
1331.1,18550,18550
1330.7,18220.6,18220.6
1330.3,18423.5,18423.5
1329.9,18344.1,18344.1
1329.5,18473.5,18473.5
1329.1,18285.3,18285.3
1328.7,18108.8,18108.8
1328.3,18444.1,18444.1
1327.9,18114.7,18114.7
1327.5,18379.4,18379.4
1327.1,18229.4,18229.4
1326.7,18564.7,18564.7
1326.3,17900,17900
1325.9,18067.6,18067.6
1325.5,18476.5,18476.5
1325.1,18332.4,18332.4
1324.7,18147.1,18147.1
1324.3,18647.1,18647.1
1323.9,18594.1,18594.1
1323.5,18479.4,18479.4
1323.1,18585.3,18585.3
1322.7,18588.2,18588.2
1322.3,18082.4,18082.4
1321.9,18217.6,18217.6
1321.5,18285.3,18285.3
1321.1,18088.2,18088.2
1320.7,18279.4,18279.4
1320.3,18285.3,18285.3
1319.9,18279.4,18279.4
1319.5,18079.4,18079.4
1319.1,18108.8,18108.8
1318.7,18429.4,18429.4
1318.3,18205.9,18205.9
1317.9,18000,18000
1317.5,18135.3,18135.3
1317.1,18250,18250
1316.7,18305.9,18305.9
1316.3,18329.4,18329.4
1315.9,17950,17950
1315.5,18164.7,18164.7
1315.1,17955.9,17955.9
1314.7,18276.5,18276.5
1314.3,18141.2,18141.2
1313.9,18138.2,18138.2
1313.5,18217.6,18217.6
1313.1,18326.5,18326.5
1312.7,18429.4,18429.4
1312.3,18308.8,18308.8
1311.9,18514.7,18514.7
1311.5,17817.6,17817.6
1311.1,18150,18150
1310.7,17879.4,17879.4
1310.3,18250,18250
1309.9,18282.4,18282.4
1309.5,18420.6,18420.6
1309.1,18117.6,18117.6
1308.7,18317.6,18317.6
1308.3,18002.9,18002.9
1307.9,18026.5,18026.5
1307.5,18197.1,18197.1
1307.1,18129.4,18129.4
1306.7,18144.1,18144.1
1306.3,18973.5,18973.5
1305.9,18261.8,18261.8
1305.5,18058.8,18058.8
1305.1,18373.5,18373.5
1304.7,18270.6,18270.6
1304.3,18350,18350
1303.9,18432.4,18432.4
1303.5,18514.7,18514.7
1303.1,18426.5,18426.5
1302.7,18402.9,18402.9
1302.3,18764.7,18764.7
1301.9,18332.4,18332.4
1301.5,17888.2,17888.2
1301.1,18191.2,18191.2
1300.7,18676.5,18676.5
1300.3,18764.7,18764.7
1299.9,18629.4,18629.4
1299.5,18388.2,18388.2
1299.1,18052.9,18052.9
1298.7,18370.6,18370.6
1298.3,18258.8,18258.8
1297.9,18397.1,18397.1
1297.5,18405.9,18405.9
1297.1,18329.4,18329.4
1296.7,18476.5,18476.5
1296.3,18497.1,18497.1
1295.9,18500,18500
1295.5,18155.9,18155.9
1295.1,17867.6,17867.6
1294.7,18638.2,18638.2
1294.3,18758.8,18758.8
1293.9,18229.4,18229.4
1293.5,18388.2,18388.2
1293.1,18352.9,18352.9
1292.7,18138.2,18138.2
1292.3,18638.2,18638.2
1291.9,18576.5,18576.5
1291.5,18397.1,18397.1
1291.1,18647.1,18647.1
1290.7,18223.5,18223.5
1290.3,18867.6,18867.6
1289.9,18567.6,18567.6
1289.5,18664.7,18664.7
1289.1,18344.1,18344.1
1288.7,18517.6,18517.6
1288.3,18823.5,18823.5
1287.9,18582.4,18582.4
1287.5,18723.5,18723.5
1287.1,18667.6,18667.6
1286.7,18800,18800
1286.3,19444.1,19444.1
1285.9,18729.4,18729.4
1285.5,18658.8,18658.8
1285.1,18861.8,18861.8
1284.7,18641.2,18641.2
1284.3,18985.3,18985.3
1283.9,18755.9,18755.9
1283.5,19082.4,19082.4
1283.1,18600,18600
1282.7,18600,18600
1282.3,18626.5,18626.5
1281.9,18823.5,18823.5
1281.5,18805.9,18805.9
1281.1,19055.9,19055.9
1280.7,18376.5,18376.5
1280.3,18835.3,18835.3
1279.9,19061.8,19061.8
1279.5,19223.5,19223.5
1279.1,18517.6,18517.6
1278.7,19205.9,19205.9
1278.3,19164.7,19164.7
1277.9,18747.1,18747.1
1277.5,19088.2,19088.2
1277.1,19061.8,19061.8
1276.7,18929.4,18929.4
1276.3,19147.1,19147.1
1275.9,18908.8,18908.8
1275.5,19058.8,19058.8
1275.1,19047.1,19047.1
1274.7,18855.9,18855.9
1274.3,18861.8,18861.8
1273.9,18858.8,18858.8
1273.5,18755.9,18755.9
1273.1,18873.5,18873.5
1272.7,18876.5,18876.5
1272.3,19276.5,19276.5
1271.9,18782.4,18782.4
1271.5,19141.2,19141.2
1271.1,19467.6,19467.6
1270.7,19152.9,19152.9
1270.3,19311.8,19311.8
1269.9,19241.2,19241.2
1269.5,19582.4,19582.4
1269.1,19035.3,19035.3
1268.7,19523.5,19523.5
1268.3,18650,18650
1267.9,18711.8,18711.8
1267.5,19764.7,19764.7
1267.1,18961.8,18961.8
1266.7,19432.4,19432.4
1266.3,18926.5,18926.5
1265.9,19964.7,19964.7
1265.5,19252.9,19252.9
1265.1,19102.9,19102.9
1264.7,19120.6,19120.6
1264.3,19785.3,19785.3
1263.9,19297.1,19297.1
1263.5,19267.6,19267.6
1263.1,19497.1,19497.1
1262.7,19279.4,19279.4
1262.3,19573.5,19573.5
1261.9,19888.2,19888.2
1261.5,19785.3,19785.3
1261.1,19517.6,19517.6
1260.7,20000,20000
1260.3,19532.4,19532.4
1259.9,19805.9,19805.9
1259.5,19435.3,19435.3
1259.1,19517.6,19517.6
1258.7,19861.8,19861.8
1258.3,19458.8,19458.8
1257.9,19279.4,19279.4
1257.5,19541.2,19541.2
1257.1,19979.4,19979.4
1256.7,19900,19900
1256.3,20341.2,20341.2
1255.9,20141.2,20141.2
1255.5,19876.5,19876.5
1255.1,19632.4,19632.4
1254.7,20391.2,20391.2
1254.3,19811.8,19811.8
1253.9,20102.9,20102.9
1253.5,20029.4,20029.4
1253.1,20155.9,20155.9
1252.7,19888.2,19888.2
1252.3,20167.6,20167.6
1251.9,20123.5,20123.5
1251.5,20138.2,20138.2
1251.1,20382.4,20382.4
1250.7,20247.1,20247.1
1250.3,20161.8,20161.8
1249.9,20332.4,20332.4
1249.5,20447.1,20447.1
1249.1,20282.4,20282.4
1248.7,20138.2,20138.2
1248.3,20564.7,20564.7
1247.9,20194.1,20194.1
1247.5,20235.3,20235.3
1247.1,20070.6,20070.6
1246.7,20064.7,20064.7
1246.3,20294.1,20294.1
1245.9,20226.5,20226.5
1245.5,20570.6,20570.6
1245.1,20567.6,20567.6
1244.7,20711.8,20711.8
1244.3,20882.4,20882.4
1243.9,20352.9,20352.9
1243.5,20473.5,20473.5
1243.1,20429.4,20429.4
1242.7,20929.4,20929.4
1242.3,20644.1,20644.1
1241.9,20164.7,20164.7
1241.5,20767.6,20767.6
1241.1,21205.9,21205.9
1240.7,20864.7,20864.7
1240.3,21382.4,21382.4
1239.9,21329.4,21329.4
1239.5,20476.5,20476.5
1239.1,20655.9,20655.9
1238.7,20973.5,20973.5
1238.3,20561.8,20561.8
1237.9,21055.9,21055.9
1237.5,20758.8,20758.8
1237.1,21105.9,21105.9
1236.7,20750,20750
1236.3,21011.8,21011.8
1235.9,20352.9,20352.9
1235.5,20773.5,20773.5
1235.1,21073.5,21073.5
1234.7,20855.9,20855.9
1234.3,21244.1,21244.1
1233.9,20911.8,20911.8
1233.5,21073.5,21073.5
1233.1,21194.1,21194.1
1232.7,20655.9,20655.9
1232.3,21511.8,21511.8
1231.9,21455.9,21455.9
1231.5,21320.6,21320.6
1231.1,22041.2,22041.2
1230.7,21491.2,21491.2
1230.3,21485.3,21485.3
1229.9,21835.3,21835.3
1229.5,21461.8,21461.8
1229.1,21902.9,21902.9
1228.7,21626.5,21626.5
1228.3,21591.2,21591.2
1227.9,21755.9,21755.9
1227.5,22161.8,22161.8
1227.1,22338.2,22338.2
1226.7,21935.3,21935.3
1226.3,21820.6,21820.6
1225.9,22258.8,22258.8
1225.5,21952.9,21952.9
1225.1,21905.9,21905.9
1224.7,22202.9,22202.9
1224.3,21788.2,21788.2
1223.9,22208.8,22208.8
1223.5,21300,21300
1223.1,21847.1,21847.1
1222.7,21932.4,21932.4
1222.3,21385.3,21385.3
1221.9,21838.2,21838.2
1221.5,22111.8,22111.8
1221.1,22064.7,22064.7
1220.7,21588.2,21588.2
1220.3,21585.3,21585.3
1219.9,22182.4,22182.4
1219.5,20973.5,20973.5
1219.1,21135.3,21135.3
1218.7,21785.3,21785.3
1218.3,21144.1,21144.1
1217.9,21223.5,21223.5
1217.5,20897.1,20897.1
1217.1,21023.5,21023.5
1216.7,21438.2,21438.2
1216.3,20555.9,20555.9
1215.9,21032.4,21032.4
1215.5,20370.6,20370.6
1215.1,20752.9,20752.9
1214.7,20961.8,20961.8
1214.3,20158.8,20158.8
1213.9,20979.4,20979.4
1213.5,20791.2,20791.2
1213.1,20317.6,20317.6
1212.7,20505.9,20505.9
1212.3,20561.8,20561.8
1211.9,20461.8,20461.8
1211.5,20852.9,20852.9
1211.1,20391.2,20391.2
1210.7,20658.8,20658.8
1210.3,20829.4,20829.4
1209.9,20655.9,20655.9
1209.5,20844.1,20844.1
1209.1,20750,20750
1208.7,20497.1,20497.1
1208.3,20391.2,20391.2
1207.9,20638.2,20638.2
1207.5,20373.5,20373.5
1207.1,20591.2,20591.2
1206.7,20588.2,20588.2
1206.3,20661.8,20661.8
1205.9,20700,20700
1205.5,20832.4,20832.4
1205.1,20644.1,20644.1
1204.7,20832.4,20832.4
1204.3,20767.6,20767.6
1203.9,20882.4,20882.4
1203.5,20720.6,20720.6
1203.1,20500,20500
1202.7,20488.2,20488.2
1202.3,20288.2,20288.2
1201.9,20867.6,20867.6
1201.5,20982.4,20982.4
1201.1,20726.5,20726.5
1200.7,21326.5,21326.5
1200.3,20835.3,20835.3
1199.9,21088.2,21088.2
1199.5,20647.1,20647.1
1199.1,20800,20800
1198.7,21129.4,21129.4
1198.3,20988.2,20988.2
1197.9,21473.5,21473.5
1197.5,20820.6,20820.6
1197.1,20961.8,20961.8
1196.7,21250,21250
1196.3,20944.1,20944.1
1195.9,21638.2,21638.2
1195.5,21167.6,21167.6
1195.1,21347.1,21347.1
1194.7,20976.5,20976.5
1194.3,21297.1,21297.1
1193.9,21311.8,21311.8
1193.5,21505.9,21505.9
1193.1,21397.1,21397.1
1192.7,21114.7,21114.7
1192.3,21014.7,21014.7
1191.9,21132.4,21132.4
1191.5,21335.3,21335.3
1191.1,21182.4,21182.4
1190.7,20985.3,20985.3
1190.3,21300,21300
1189.9,20950,20950
1189.5,20902.9,20902.9
1189.1,21326.5,21326.5
1188.7,21397.1,21397.1
1188.3,21735.3,21735.3
1187.9,21244.1,21244.1
1187.5,21597.1,21597.1
1187.1,21211.8,21211.8
1186.7,21320.6,21320.6
1186.3,21417.6,21417.6
1185.9,20850,20850
1185.5,21673.5,21673.5
1185.1,21570.6,21570.6
1184.7,21858.8,21858.8
1184.3,21461.8,21461.8
1183.9,21617.6,21617.6
1183.5,21426.5,21426.5
1183.1,21576.5,21576.5
1182.7,21358.8,21358.8
1182.3,22150,22150
1181.9,21364.7,21364.7
1181.5,21926.5,21926.5
1181.1,21585.3,21585.3
1180.7,21714.7,21714.7
1180.3,21870.6,21870.6
1179.9,21750,21750
1179.5,21997.1,21997.1
1179.1,21767.6,21767.6
1178.7,21647.1,21647.1
1178.3,21747.1,21747.1
1177.9,21841.2,21841.2
1177.5,21473.5,21473.5
1177.1,21485.3,21485.3
1176.7,22138.2,22138.2
1176.3,21758.8,21758.8
1175.9,21838.2,21838.2
1175.5,22102.9,22102.9
1175.1,22052.9,22052.9
1174.7,22011.8,22011.8
1174.3,22167.6,22167.6
1173.9,21941.2,21941.2
1173.5,21929.4,21929.4
1173.1,22338.2,22338.2
1172.7,21788.2,21788.2
1172.3,22805.9,22805.9
1171.9,22517.6,22517.6
1171.5,22020.6,22020.6
1171.1,21914.7,21914.7
1170.7,22367.6,22367.6
1170.3,22738.2,22738.2
1169.9,22376.5,22376.5
1169.5,22002.9,22002.9
1169.1,22567.6,22567.6
1168.7,22405.9,22405.9
1168.3,22291.2,22291.2
1167.9,23002.9,23002.9
1167.5,22314.7,22314.7
1167.1,22464.7,22464.7
1166.7,22376.5,22376.5
1166.3,22482.4,22482.4
1165.9,22411.8,22411.8
1165.5,22702.9,22702.9
1165.1,22276.5,22276.5
1164.7,23035.3,23035.3
1164.3,22579.4,22579.4
1163.9,22788.2,22788.2
1163.5,22779.4,22779.4
1163.1,22923.5,22923.5
1162.7,22655.9,22655.9
1162.3,22882.4,22882.4
1161.9,22670.6,22670.6
1161.5,22917.6,22917.6
1161.1,22426.5,22426.5
1160.7,22900,22900
1160.3,22600,22600
1159.9,22385.3,22385.3
1159.5,22673.5,22673.5
1159.1,23235.3,23235.3
1158.7,23011.8,23011.8
1158.3,22817.6,22817.6
1157.9,22744.1,22744.1
1157.5,22644.1,22644.1
1157.1,23241.2,23241.2
1156.7,23085.3,23085.3
1156.3,23082.4,23082.4
1155.9,22941.2,22941.2
1155.5,23008.8,23008.8
1155.1,23502.9,23502.9
1154.7,23070.6,23070.6
1154.3,22935.3,22935.3
1153.9,23155.9,23155.9
1153.5,23350,23350
1153.1,23141.2,23141.2
1152.7,23429.4,23429.4
1152.3,23085.3,23085.3
1151.9,23044.1,23044.1
1151.5,23211.8,23211.8
1151.1,23244.1,23244.1
1150.7,23100,23100
1150.3,23608.8,23608.8
1149.9,23788.2,23788.2
1149.5,23052.9,23052.9
1149.1,23635.3,23635.3
1148.7,23200,23200
1148.3,23470.6,23470.6
1147.9,23850,23850
1147.5,23682.4,23682.4
1147.1,23547.1,23547.1
1146.7,24002.9,24002.9
1146.3,23567.6,23567.6
1145.9,23726.5,23726.5
1145.5,23858.8,23858.8
1145.1,23941.2,23941.2
1144.7,23426.5,23426.5
1144.3,23935.3,23935.3
1143.9,24255.9,24255.9
1143.5,24091.2,24091.2
1143.1,24147.1,24147.1
1142.7,24017.6,24017.6
1142.3,24076.5,24076.5
1141.9,23911.8,23911.8
1141.5,23673.5,23673.5
1141.1,23850,23850
1140.7,23908.8,23908.8
1140.3,23864.7,23864.7
1139.9,23876.5,23876.5
1139.5,23938.2,23938.2
1139.1,24185.3,24185.3
1138.7,24300,24300
1138.3,23888.2,23888.2
1137.9,24185.3,24185.3
1137.5,24105.9,24105.9
1137.1,24179.4,24179.4
1136.7,24447.1,24447.1
1136.3,24188.2,24188.2
1135.9,24235.3,24235.3
1135.5,24750,24750
1135.1,24544.1,24544.1
1134.7,24582.4,24582.4
1134.3,24505.9,24505.9
1133.9,24064.7,24064.7
1133.5,24541.2,24541.2
1133.1,24485.3,24485.3
1132.7,24788.2,24788.2
1132.3,23908.8,23908.8
1131.9,24361.8,24361.8
1131.5,24520.6,24520.6
1131.1,24655.9,24655.9
1130.7,24170.6,24170.6
1130.3,24567.6,24567.6
1129.9,24644.1,24644.1
1129.5,24411.8,24411.8
1129.1,24338.2,24338.2
1128.7,24311.8,24311.8
1128.3,24620.6,24620.6
1127.9,24538.2,24538.2
1127.5,24829.4,24829.4
1127.1,24267.6,24267.6
1126.7,24832.4,24832.4
1126.3,24891.2,24891.2
1125.9,24582.4,24582.4
1125.5,25138.2,25138.2
1125.1,24900,24900
1124.7,25638.2,25638.2
1124.3,24902.9,24902.9
1123.9,24767.6,24767.6
1123.5,24761.8,24761.8
1123.1,24705.9,24705.9
1122.7,24832.4,24832.4
1122.3,25105.9,25105.9
1121.9,25279.4,25279.4
1121.5,24844.1,24844.1
1121.1,25217.6,25217.6
1120.7,24979.4,24979.4
1120.3,25335.3,25335.3
1119.9,24647.1,24647.1
1119.5,25114.7,25114.7
1119.1,25014.7,25014.7
1118.7,25341.2,25341.2
1118.3,25344.1,25344.1
1117.9,25152.9,25152.9
1117.5,25129.4,25129.4
1117.1,25273.5,25273.5
1116.7,25135.3,25135.3
1116.3,25402.9,25402.9
1115.9,25476.5,25476.5
1115.5,24723.5,24723.5
1115.1,24697.1,24697.1
1114.7,25532.4,25532.4
1114.3,25414.7,25414.7
1113.9,25564.7,25564.7
1113.5,25264.7,25264.7
1113.1,25214.7,25214.7
1112.7,25391.2,25391.2
1112.3,25058.8,25058.8
1111.9,25420.6,25420.6
1111.5,25735.3,25735.3
1111.1,25761.8,25761.8
1110.7,25200,25200
1110.3,25782.4,25782.4
1109.9,25776.5,25776.5
1109.5,25247.1,25247.1
1109.1,25561.8,25561.8
1108.7,25408.8,25408.8
1108.3,25676.5,25676.5
1107.9,25208.8,25208.8
1107.5,26229.4,26229.4
1107.1,25973.5,25973.5
1106.7,26320.6,26320.6
1106.3,26164.7,26164.7
1105.9,26241.2,26241.2
1105.5,25547.1,25547.1
1105.1,25729.4,25729.4
1104.7,25673.5,25673.5
1104.3,25308.8,25308.8
1103.9,25620.6,25620.6
1103.5,25985.3,25985.3
1103.1,25838.2,25838.2
1102.7,25867.6,25867.6
1102.3,26005.9,26005.9
1101.9,26482.4,26482.4
1101.5,26164.7,26164.7
1101.1,25855.9,25855.9
1100.7,26029.4,26029.4
1100.3,26026.5,26026.5
1099.9,25902.9,25902.9
1099.5,26079.4,26079.4
1099.1,26120.6,26120.6
1098.7,26205.9,26205.9
1098.3,26238.2,26238.2
1097.9,26723.5,26723.5
1097.5,26541.2,26541.2
1097.1,26697.1,26697.1
1096.7,26391.2,26391.2
1096.3,26376.5,26376.5
1095.9,26176.5,26176.5
1095.5,25897.1,25897.1
1095.1,26294.1,26294.1
1094.7,26014.7,26014.7
1094.3,25935.3,25935.3
1093.9,26382.4,26382.4
1093.5,26047.1,26047.1
1093.1,26200,26200
1092.7,25776.5,25776.5
1092.3,26155.9,26155.9
1091.9,25511.8,25511.8
1091.5,26323.5,26323.5
1091.1,26417.6,26417.6
1090.7,26270.6,26270.6
1090.3,26191.2,26191.2
1089.9,25982.4,25982.4
1089.5,26182.4,26182.4
1089.1,25758.8,25758.8
1088.7,26417.6,26417.6
1088.3,25938.2,25938.2
1087.9,25976.5,25976.5
1087.5,25773.5,25773.5
1087.1,26050,26050
1086.7,25705.9,25705.9
1086.3,25997.1,25997.1
1085.9,25855.9,25855.9
1085.5,26220.6,26220.6
1085.1,26320.6,26320.6
1084.7,26570.6,26570.6
1084.3,25858.8,25858.8
1083.9,25582.4,25582.4
1083.5,26055.9,26055.9
1083.1,26529.4,26529.4
1082.7,26423.5,26423.5
1082.3,26529.4,26529.4
1081.9,26344.1,26344.1
1081.5,26338.2,26338.2
1081.1,26755.9,26755.9
1080.7,26264.7,26264.7
1080.3,25776.5,25776.5
1079.9,26226.5,26226.5
1079.5,26279.4,26279.4
1079.1,26464.7,26464.7
1078.7,26420.6,26420.6
1078.3,26558.8,26558.8
1077.9,26791.2,26791.2
1077.5,26373.5,26373.5
1077.1,26761.8,26761.8
1076.7,26555.9,26555.9
1076.3,26832.4,26832.4
1075.9,26670.6,26670.6
1075.5,26841.2,26841.2
1075.1,26955.9,26955.9
1074.7,26776.5,26776.5
1074.3,27026.5,27026.5
1073.9,27461.8,27461.8
1073.5,26573.5,26573.5
1073.1,27052.9,27052.9
1072.7,26858.8,26858.8
1072.3,26235.3,26235.3
1071.9,27108.8,27108.8
1071.5,26944.1,26944.1
1071.1,27667.6,27667.6
1070.7,26979.4,26979.4
1070.3,26947.1,26947.1
1069.9,26591.2,26591.2
1069.5,27447.1,27447.1
1069.1,27011.8,27011.8
1068.7,27150,27150
1068.3,26829.4,26829.4
1067.9,26702.9,26702.9
1067.5,26600,26600
1067.1,27117.6,27117.6
1066.7,27447.1,27447.1
1066.3,27405.9,27405.9
1065.9,26870.6,26870.6
1065.5,27335.3,27335.3
1065.1,27223.5,27223.5
1064.7,27373.5,27373.5
1064.3,27211.8,27211.8
1063.9,27061.8,27061.8
1063.5,27426.5,27426.5
1063.1,27208.8,27208.8
1062.7,28029.4,28029.4
1062.3,27252.9,27252.9
1061.9,27694.1,27694.1
1061.5,27755.9,27755.9
1061.1,27055.9,27055.9
1060.7,27644.1,27644.1
1060.3,27955.9,27955.9
1059.9,27694.1,27694.1
1059.5,27264.7,27264.7
1059.1,27564.7,27564.7
1058.7,27647.1,27647.1
1058.3,27970.6,27970.6
1057.9,27961.8,27961.8
1057.5,27570.6,27570.6
1057.1,27720.6,27720.6
1056.7,27550,27550
1056.3,28755.9,28755.9
1055.9,27629.4,27629.4
1055.5,27655.9,27655.9
1055.1,27994.1,27994.1
1054.7,28126.5,28126.5
1054.3,28738.2,28738.2
1053.9,27550,27550
1053.5,28167.6,28167.6
1053.1,28055.9,28055.9
1052.7,27979.4,27979.4
1052.3,27973.5,27973.5
1051.9,28017.6,28017.6
1051.5,27891.2,27891.2
1051.1,28323.5,28323.5
1050.7,27955.9,27955.9
1050.3,28508.8,28508.8
1049.9,28741.2,28741.2
1049.5,28432.4,28432.4
1049.1,28211.8,28211.8
1048.7,28076.5,28076.5
1048.3,28779.4,28779.4
1047.9,28732.4,28732.4
1047.5,28602.9,28602.9
1047.1,28441.2,28441.2
1046.7,28923.5,28923.5
1046.3,28697.1,28697.1
1045.9,28379.4,28379.4
1045.5,28932.4,28932.4
1045.1,28255.9,28255.9
1044.7,28764.7,28764.7
1044.3,28982.4,28982.4
1043.9,28685.3,28685.3
1043.5,28938.2,28938.2
1043.1,28750,28750
1042.7,28791.2,28791.2
1042.3,28461.8,28461.8
1041.9,28450,28450
1041.5,28788.2,28788.2
1041.1,28917.6,28917.6
1040.7,28885.3,28885.3
1040.3,29055.9,29055.9
1039.9,29208.8,29208.8
1039.5,28608.8,28608.8
1039.1,29020.6,29020.6
1038.7,28994.1,28994.1
1038.3,28891.2,28891.2
1037.9,28682.4,28682.4
1037.5,28867.6,28867.6
1037.1,28317.6,28317.6
1036.7,29397.1,29397.1
1036.3,29185.3,29185.3
1035.9,29282.4,29282.4
1035.5,28900,28900
1035.1,29370.6,29370.6
1034.7,29329.4,29329.4
1034.3,29182.4,29182.4
1033.9,29655.9,29655.9
1033.5,29111.8,29111.8
1033.1,29626.5,29626.5
1032.7,29079.4,29079.4
1032.3,28997.1,28997.1
1031.9,29044.1,29044.1
1031.5,29567.6,29567.6
1031.1,29547.1,29547.1
1030.7,29723.5,29723.5
1030.3,29502.9,29502.9
1029.9,29005.9,29005.9
1029.5,29908.8,29908.8
1029.1,28911.8,28911.8
1028.7,28991.2,28991.2
1028.3,29629.4,29629.4
1027.9,30158.8,30158.8
1027.5,29911.8,29911.8
1027.1,29167.6,29167.6
1026.7,29629.4,29629.4
1026.3,29323.5,29323.5
1025.9,29617.6,29617.6
1025.5,29841.2,29841.2
1025.1,29964.7,29964.7
1024.7,29702.9,29702.9
1024.3,29873.5,29873.5
1023.9,29988.2,29988.2
1023.5,30161.8,30161.8
1023.1,30411.8,30411.8
1022.7,30382.4,30382.4
1022.3,29814.7,29814.7
1021.9,30864.7,30864.7
1021.5,29714.7,29714.7
1021.1,30341.2,30341.2
1020.7,29944.1,29944.1
1020.3,30197.1,30197.1
1019.9,30200,30200
1019.5,30270.6,30270.6
1019.1,29894.1,29894.1
1018.7,29591.2,29591.2
1018.3,30558.8,30558.8
1017.9,30400,30400
1017.5,30229.4,30229.4
1017.1,29735.3,29735.3
1016.7,29847.1,29847.1
1016.3,30476.5,30476.5
1015.9,30423.5,30423.5
1015.5,30347.1,30347.1
1015.1,30155.9,30155.9
1014.7,30438.2,30438.2
1014.3,30367.6,30367.6
1013.9,30014.7,30014.7
1013.5,30552.9,30552.9
1013.1,30479.4,30479.4
1012.7,30444.1,30444.1
1012.3,30205.9,30205.9
1011.9,29920.6,29920.6
1011.5,30673.5,30673.5
1011.1,30529.4,30529.4
1010.7,30652.9,30652.9
1010.3,30744.1,30744.1
1009.9,30738.2,30738.2
1009.5,30623.5,30623.5
1009.1,30323.5,30323.5
1008.7,30602.9,30602.9
1008.3,30497.1,30497.1
1007.9,30682.4,30682.4
1007.5,30597.1,30597.1
1007.1,30155.9,30155.9
1006.7,30938.2,30938.2
1006.3,30758.8,30758.8
1005.9,31958.8,31958.8
1005.5,30288.2,30288.2
1005.1,30167.6,30167.6
1004.7,30744.1,30744.1
1004.3,31444.1,31444.1
1003.9,31032.4,31032.4
1003.5,30964.7,30964.7
1003.1,31185.3,31185.3
1002.7,30779.4,30779.4
1002.3,30770.6,30770.6
1001.9,31270.6,31270.6
1001.5,31300,31300
1001.1,31511.8,31511.8
1000.7,30773.5,30773.5
1000.3,31223.5,31223.5
999.9,31285.3,31285.3
999.5,31570.6,31570.6
999.1,32085.3,32085.3
998.7,31891.2,31891.2
998.3,31026.5,31026.5
997.9,31032.4,31032.4
997.5,31964.7,31964.7
997.1,31167.6,31167.6
996.7,30950,30950
996.3,31588.2,31588.2
995.9,30870.6,30870.6
995.5,30970.6,30970.6
995.1,31423.5,31423.5
994.7,31435.3,31435.3
994.3,31305.9,31305.9
993.9,30850,30850
993.5,31026.5,31026.5
993.1,31026.5,31026.5
992.7,31429.4,31429.4
992.3,31488.2,31488.2
991.9,31026.5,31026.5
991.5,31094.1,31094.1
991.1,30629.4,30629.4
990.7,30567.6,30567.6
990.3,30802.9,30802.9
989.9,30855.9,30855.9
989.5,30770.6,30770.6
989.1,30958.8,30958.8
988.7,30829.4,30829.4
988.3,31073.5,31073.5
987.9,30450,30450
987.5,31382.4,31382.4
987.1,30779.4,30779.4
986.7,30117.6,30117.6
986.3,30614.7,30614.7
985.9,30417.6,30417.6
985.5,30667.6,30667.6
985.1,30611.8,30611.8
984.7,30361.8,30361.8
984.3,30841.2,30841.2
983.9,30858.8,30858.8
983.5,30655.9,30655.9
983.1,31308.8,31308.8
982.7,31400,31400
982.3,31388.2,31388.2
981.9,31341.2,31341.2
981.5,31102.9,31102.9
981.1,31626.5,31626.5
980.7,31417.6,31417.6
980.3,31576.5,31576.5
979.9,32029.4,32029.4
979.5,32394.1,32394.1
979.1,32447.1,32447.1
978.7,32044.1,32044.1
978.3,32400,32400
977.9,32838.2,32838.2
977.5,32558.8,32558.8
977.1,32491.2,32491.2
976.7,32852.9,32852.9
976.3,33076.5,33076.5
975.9,32870.6,32870.6
975.5,32835.3,32835.3
975.1,32191.2,32191.2
974.7,31961.8,31961.8
974.3,31555.9,31555.9
973.9,31779.4,31779.4
973.5,31123.5,31123.5
973.1,31385.3,31385.3
972.7,31408.8,31408.8
972.3,31408.8,31408.8
971.9,31311.8,31311.8
971.5,30932.4,30932.4
971.1,30950,30950
970.7,30038.2,30038.2
970.3,30594.1,30594.1
969.9,30376.5,30376.5
969.5,30311.8,30311.8
969.1,29976.5,29976.5
968.7,30091.2,30091.2
968.3,30097.1,30097.1
967.9,29255.9,29255.9
967.5,29370.6,29370.6
967.1,29394.1,29394.1
966.7,29452.9,29452.9
966.3,29229.4,29229.4
965.9,29141.2,29141.2
965.5,29247.1,29247.1
965.1,29711.8,29711.8
964.7,28794.1,28794.1
964.3,29120.6,29120.6
963.9,29638.2,29638.2
963.5,29405.9,29405.9
963.1,30102.9,30102.9
962.7,30120.6,30120.6
962.3,30300,30300
961.9,29991.2,29991.2
961.5,29564.7,29564.7
961.1,29679.4,29679.4
960.7,29173.5,29173.5
960.3,29214.7,29214.7
959.9,29000,29000
959.5,29117.6,29117.6
959.1,28770.6,28770.6
958.7,28561.8,28561.8
958.3,28808.8,28808.8
957.9,28452.9,28452.9
957.5,28747.1,28747.1
957.1,29250,29250
956.7,28697.1,28697.1
956.3,29052.9,29052.9
955.9,28623.5,28623.5
955.5,29408.8,29408.8
955.1,29608.8,29608.8
954.7,30155.9,30155.9
954.3,29667.6,29667.6
953.9,30532.4,30532.4
953.5,29950,29950
953.1,30279.4,30279.4
952.7,30355.9,30355.9
952.3,31623.5,31623.5
951.9,32338.2,32338.2
951.5,32605.9,32605.9
951.1,31223.5,31223.5
950.7,29676.5,29676.5
950.3,28594.1,28594.1
949.9,27602.9,27602.9
949.5,27373.5,27373.5
949.1,26694.1,26694.1
948.7,26776.5,26776.5
948.3,26491.2,26491.2
947.9,26291.2,26239.2
947.5,25935.3,26190.8
947.1,26276.5,26140.5
946.7,26600,26088.5
946.3,26202.9,26035.1
945.9,25973.5,25979.9
945.5,26726.5,25922.7
945.1,26620.6,25864.2
944.7,26635.3,25804.2
944.3,27044.1,25742.8
943.9,27273.5,25680.4
943.5,28085.3,25617.1
943.1,27391.2,25553.6
942.7,27802.9,25489.4
942.3,27429.4,25424.8
941.9,27061.8,25359.6
941.5,27432.4,25293.6
941.1,27226.5,25227
940.7,26514.7,25159.9
940.3,26317.6,25091.6
939.9,26514.7,25022.1
939.5,25891.2,24951.6
939.1,26017.6,24879.8
938.7,25761.8,24806.8
938.3,25676.5,24732.6
937.9,25711.8,24657.2
937.5,25614.7,24580.7
937.1,25485.3,24503.4
936.7,26050,24425.2
936.3,26679.4,24346.7
935.9,26847.1,24268.7
935.5,27982.4,24191.4
935.1,28223.5,24116
934.7,29476.5,24042.9
934.3,29976.5,23973.2
933.9,30247.1,23907.5
933.5,29876.5,23846.3
933.1,30279.4,23789.4
932.7,31885.3,23737.2
932.3,35255.9,23691.3
931.9,38044.1,23654.5
931.5,36702.9,23629
931.1,32732.4,23614
930.7,27514.7,23606.2
930.3,25626.5,23601.5
929.9,25088.2,23598.4
929.5,24264.7,23596.5
929.1,24373.5,23595.2
928.7,23750,23594.4
928.3,23700,23593.8
927.9,23626.5,23593.2
927.5,23576.5,23592.7
927.1,24255.9,23592.2
926.7,22944.1,22944.1
926.3,23158.8,23158.8
925.9,23620.6,23620.6
925.5,23705.9,23705.9
925.1,23520.6,23520.6
924.7,23120.6,23120.6
924.3,23367.6,23367.6
923.9,23032.4,23032.4
923.5,23405.9,23405.9
923.1,23526.5,23526.5
922.7,23679.4,23679.4
922.3,23702.9,23702.9
921.9,23832.4,23832.4
921.5,24002.9,24002.9
921.1,23317.6,23317.6
920.7,23747.1,23747.1
920.3,24267.6,24267.6
919.9,23252.9,23252.9
919.5,23197.1,23197.1
919.1,23402.9,23402.9
918.7,23738.2,23738.2
918.3,23473.5,23473.5
917.9,23850,23850
917.5,24185.3,24185.3
917.1,23947.1,23947.1
916.7,23885.3,23885.3
916.3,23714.7,23714.7
915.9,23917.6,23917.6
915.5,24185.3,24185.3
915.1,23938.2,23938.2
914.7,23958.8,23958.8
914.3,23811.8,23811.8
913.9,24073.5,24073.5
913.5,24173.5,24173.5
913.1,24079.4,24079.4
912.7,23929.4,23929.4
912.3,23967.6,23967.6
911.9,24400,24400
911.5,23876.5,23876.5
911.1,23864.7,23864.7
910.7,23926.5,23926.5
910.3,23938.2,23938.2
909.9,23702.9,23702.9
909.5,24223.5,24223.5
909.1,24138.2,24138.2
908.7,23976.5,23976.5
908.3,24570.6,24570.6
907.9,24452.9,24452.9
907.5,24335.3,24335.3
907.1,24600,24600
906.7,24455.9,24455.9
906.3,24908.8,24908.8
905.9,24138.2,24138.2
905.5,24035.3,24035.3
905.1,24329.4,24329.4
904.7,24114.7,24114.7
904.3,24358.8,24358.8
903.9,24544.1,24544.1
903.5,24229.4,24229.4
903.1,24194.1,24194.1
902.7,24635.3,24635.3
902.3,24358.8,24358.8
901.9,24429.4,24429.4
901.5,24976.5,24976.5
901.1,24802.9,24802.9
900.7,24817.6,24817.6
900.3,24744.1,24744.1
899.9,24164.7,24164.7
899.5,24876.5,24876.5
899.1,24791.2,24791.2
898.7,24497.1,24497.1
898.3,25070.6,25070.6
897.9,25047.1,25047.1
897.5,24758.8,24758.8
897.1,25032.4,25032.4
896.7,25017.6,25017.6
896.3,25129.4,25129.4
895.9,24973.5,24973.5
895.5,24417.6,24417.6
895.1,25214.7,25214.7
894.7,24652.9,24652.9
894.3,25361.8,25361.8
893.9,24726.5,24726.5
893.5,25117.6,25117.6
893.1,24735.3,24735.3
892.7,25367.6,25367.6
892.3,25479.4,25479.4
891.9,24873.5,24873.5
891.5,25129.4,25129.4
891.1,24761.8,24761.8
890.7,25238.2,25238.2
890.3,25305.9,25305.9
889.9,25132.4,25132.4
889.5,25379.4,25379.4
889.1,25085.3,25085.3
888.7,25332.4,25332.4
888.3,25152.9,25152.9
887.9,25676.5,25676.5
887.5,25567.6,25567.6
887.1,25232.4,25232.4
886.7,25194.1,25194.1
886.3,25291.2,25291.2
885.9,25697.1,25697.1
885.5,25782.4,25782.4
885.1,26029.4,26029.4
884.7,25429.4,25429.4
884.3,25702.9,25702.9
883.9,25764.7,25764.7
883.5,25647.1,25647.1
883.1,25817.6,25817.6
882.7,25526.5,25526.5
882.3,26100,26100
881.9,25770.6,25770.6
881.5,25755.9,25755.9
881.1,25794.1,25794.1
880.7,25950,25950
880.3,26550,26550
879.9,25761.8,25761.8
879.5,26000,26000
879.1,26005.9,26005.9
878.7,25902.9,25902.9
878.3,26026.5,26026.5
877.9,25838.2,25838.2
877.5,26532.4,26532.4
877.1,25879.4,25879.4
876.7,26341.2,26341.2
876.3,26002.9,26002.9
875.9,26141.2,26141.2
875.5,26261.8,26261.8
875.1,26367.6,26367.6
874.7,26185.3,26185.3
874.3,25876.5,25876.5
873.9,26217.6,26217.6
873.5,25638.2,25638.2
873.1,26311.8,26311.8
872.7,25932.4,25932.4
872.3,25808.8,25808.8
871.9,26738.2,26738.2
871.5,26379.4,26379.4
871.1,26670.6,26670.6
870.7,26455.9,26455.9
870.3,26808.8,26808.8
869.9,26432.4,26432.4
869.5,26191.2,26191.2
869.1,26700,26700
868.7,26482.4,26482.4
868.3,26491.2,26491.2
867.9,26532.4,26532.4
867.5,26491.2,26491.2
867.1,26632.4,26632.4
866.7,26858.8,26858.8
866.3,26152.9,26152.9
865.9,26841.2,26841.2
865.5,26629.4,26629.4
865.1,26891.2,26891.2
864.7,27282.4,27282.4
864.3,27152.9,27152.9
863.9,26955.9,26955.9
863.5,27102.9,27102.9
863.1,27132.4,27132.4
862.7,27350,27350
862.3,27547.1,27547.1
861.9,27600,27600
861.5,27729.4,27729.4
861.1,27897.1,27897.1
860.7,28105.9,28105.9
860.3,27258.8,27258.8
859.9,27979.4,27979.4
859.5,27738.2,27738.2
859.1,27405.9,27405.9
858.7,27444.1,27444.1
858.3,27800,27800
857.9,27714.7,27714.7
857.5,27744.1,27744.1
857.1,27247.1,27247.1
856.7,27826.5,27826.5
856.3,28200,28200
855.9,27355.9,27355.9
855.5,27517.6,27517.6
855.1,27202.9,27202.9
854.7,27694.1,27694.1
854.3,27108.8,27108.8
853.9,27514.7,27514.7
853.5,27741.2,27741.2
853.1,27541.2,27541.2
852.7,27623.5,27623.5
852.3,27667.6,27667.6
851.9,27735.3,27735.3
851.5,27720.6,27720.6
851.1,27120.6,27120.6
850.7,27414.7,27414.7
850.3,27382.4,27382.4
849.9,27385.3,27385.3
849.5,26900,26900
849.1,27744.1,27744.1
848.7,27017.6,27017.6
848.3,26861.8,26861.8
847.9,26938.2,26938.2
847.5,26820.6,26820.6
847.1,26791.2,26791.2
846.7,27200,27200
846.3,27170.6,27170.6
845.9,27432.4,27432.4
845.5,26858.8,26858.8
845.1,27561.8,27561.8
844.7,27326.5,27326.5
844.3,26732.4,26732.4
843.9,26805.9,26805.9
843.5,27332.4,27332.4
843.1,26885.3,26885.3
842.7,26650,26650
842.3,27144.1,27144.1
841.9,27561.8,27561.8
841.5,26876.5,26876.5
841.1,27488.2,27488.2
840.7,27129.4,27129.4
840.3,27932.4,27932.4
839.9,27685.3,27685.3
839.5,27452.9,27452.9
839.1,28000,28000
838.7,28000,28000
838.3,27814.7,27814.7
837.9,28997.1,28997.1
837.5,29520.6,29520.6
837.1,29282.4,29282.4
836.7,29900,29900
836.3,30255.9,30255.9
835.9,30717.6,30717.6
835.5,30244.1,30244.1
835.1,30161.8,30161.8
834.7,31529.4,31529.4
834.3,30032.4,30032.4
833.9,31602.9,31602.9
833.5,31676.5,31676.5
833.1,31373.5,31373.5
832.7,31661.8,31661.8
832.3,30794.1,30794.1
831.9,30541.2,30541.2
831.5,30129.4,30129.4
831.1,29673.5,29673.5
830.7,29441.2,29441.2
830.3,29523.5,29523.5
829.9,28976.5,28976.5
829.5,28935.3,28935.3
829.1,29017.6,29017.6
828.7,28655.9,28655.9
828.3,28814.7,28814.7
827.9,28235.3,28235.3
827.5,28294.1,28294.1
827.1,28282.4,28282.4
826.7,28326.5,28326.5
826.3,27882.4,27882.4
825.9,27661.8,27661.8
825.5,28085.3,28085.3
825.1,27723.5,27723.5
824.7,26800,26800
824.3,27464.7,27464.7
823.9,27079.4,27079.4
823.5,26482.4,26482.4
823.1,26373.5,26373.5
822.7,26597.1,26597.1
822.3,26197.1,26197.1
821.9,26402.9,26402.9
821.5,26679.4,26679.4
821.1,26167.6,26167.6
820.7,25697.1,25697.1
820.3,26023.5,26023.5
819.9,25644.1,25644.1
819.5,26500,26500
819.1,25867.6,25867.6
818.7,25888.2,25888.2
818.3,25879.4,25879.4
817.9,26679.4,26679.4
817.5,26020.6,26020.6
817.1,26417.6,26417.6
816.7,26464.7,26464.7
816.3,26194.1,26194.1
815.9,26770.6,26770.6
815.5,26241.2,26241.2
815.1,26097.1,26097.1
814.7,26558.8,26558.8
814.3,26282.4,26282.4
813.9,26102.9,26102.9
813.5,26644.1,26644.1
813.1,26308.8,26308.8
812.7,26044.1,26044.1
812.3,26641.2,26641.2
811.9,26200,26200
811.5,26032.4,26032.4
811.1,26470.6,26470.6
810.7,26661.8,26661.8
810.3,26923.5,26923.5
809.9,26329.4,26329.4
809.5,26491.2,26491.2
809.1,26508.8,26508.8
808.7,25758.8,25758.8
808.3,26402.9,26402.9
807.9,26761.8,26761.8
807.5,26541.2,26541.2
807.1,26811.8,26811.8
806.7,26455.9,26455.9
806.3,26535.3,26535.3
805.9,26923.5,26923.5
805.5,26482.4,26482.4
805.1,26044.1,26044.1
804.7,26552.9,26552.9
804.3,26238.2,26238.2
803.9,26594.1,26594.1
803.5,26514.7,26514.7
803.1,26726.5,26726.5
802.7,26788.2,26788.2
802.3,26561.8,26561.8
801.9,26764.7,26764.7
801.5,26585.3,26585.3
801.1,26544.1,26544.1
800.7,26582.4,26582.4
800.3,26452.9,26452.9
799.9,27061.8,27061.8
799.5,26832.4,26832.4
799.1,26891.2,26891.2
798.7,27211.8,27211.8
798.3,26776.5,26776.5
797.9,26535.3,26535.3
797.5,26908.8,26908.8
797.1,25985.3,25985.3
796.7,26876.5,26876.5
796.3,26791.2,26791.2
795.9,27120.6,27120.6
795.5,26291.2,26291.2
795.1,27005.9,27005.9
794.7,27088.2,27088.2
794.3,26729.4,26729.4
793.9,27285.3,27285.3
793.5,27126.5,27126.5
793.1,26717.6,26717.6
792.7,27058.8,27058.8
792.3,27423.5,27423.5
791.9,27452.9,27452.9
791.5,27414.7,27414.7
791.1,27235.3,27235.3
790.7,27105.9,27105.9
790.3,26923.5,26923.5
789.9,26758.8,26758.8
789.5,27320.6,27320.6
789.1,26929.4,26929.4
788.7,27188.2,27188.2
788.3,27335.3,27335.3
787.9,27188.2,27188.2
787.5,27226.5,27226.5
787.1,27226.5,27226.5
786.7,27085.3,27085.3
786.3,27297.1,27297.1
785.9,27135.3,27135.3
785.5,27344.1,27344.1
785.1,27126.5,27126.5
784.7,27732.4,27732.4
784.3,27444.1,27444.1
783.9,27179.4,27179.4
783.5,27464.7,27464.7
783.1,27444.1,27444.1
782.7,27355.9,27355.9
782.3,27300,27300
781.9,27314.7,27314.7
781.5,27405.9,27405.9
781.1,27488.2,27488.2
780.7,27326.5,27326.5
780.3,27979.4,27979.4
779.9,27020.6,27020.6
779.5,27594.1,27594.1
779.1,27305.9,27305.9
778.7,27338.2,27338.2
778.3,27679.4,27679.4
777.9,27485.3,27485.3
777.5,27508.8,27508.8
777.1,27688.2,27688.2
776.7,27705.9,27705.9
776.3,27538.2,27538.2
775.9,27555.9,27555.9
775.5,27682.4,27682.4
775.1,27600,27600
774.7,27091.2,27091.2
774.3,27555.9,27555.9
773.9,27955.9,27955.9
773.5,27476.5,27476.5
773.1,28185.3,28185.3
772.7,27802.9,27802.9
772.3,28667.6,28667.6
771.9,27988.2,27988.2
771.5,27732.4,27732.4
771.1,28200,28200
770.7,27555.9,27555.9
770.3,28214.7,28214.7
769.9,27979.4,27979.4
769.5,27711.8,27711.8
769.1,28105.9,28105.9
768.7,28261.8,28261.8
768.3,27500,27500
767.9,27850,27850
767.5,27770.6,27770.6
767.1,27976.5,27976.5
766.7,28264.7,28264.7
766.3,28176.5,28176.5
765.9,28508.8,28508.8
765.5,27870.6,27870.6
765.1,27732.4,27732.4
764.7,27235.3,27235.3
764.3,27635.3,27635.3
763.9,27520.6,27520.6
763.5,28347.1,28347.1
763.1,27985.3,27985.3
762.7,28079.4,28079.4
762.3,28155.9,28155.9
761.9,28220.6,28220.6
761.5,27479.4,27479.4
761.1,27782.4,27782.4
760.7,27911.8,27911.8
760.3,27764.7,27764.7
759.9,28250,28250
759.5,27729.4,27729.4
759.1,27882.4,27882.4
758.7,28202.9,28202.9
758.3,28202.9,28202.9
757.9,28417.6,28417.6
757.5,27852.9,27852.9
757.1,28108.8,28108.8
756.7,28041.2,28041.2
756.3,28382.4,28382.4
755.9,28164.7,28164.7
755.5,28664.7,28664.7
755.1,28567.6,28567.6
754.7,27744.1,27744.1
754.3,27832.4,27832.4
753.9,28108.8,28108.8
753.5,28291.2,28291.2
753.1,27891.2,27891.2
752.7,28555.9,28555.9
752.3,28776.5,28776.5
751.9,28329.4,28329.4
751.5,27888.2,27888.2
751.1,28191.2,28191.2
750.7,28091.2,28091.2
750.3,27979.4,27979.4
749.9,27814.7,27814.7
749.5,28117.6,28117.6
749.1,28373.5,28373.5
748.7,27985.3,27985.3
748.3,28308.8,28308.8
747.9,28252.9,28252.9
747.5,27908.8,27908.8
747.1,28432.4,28432.4
746.7,28352.9,28352.9
746.3,28394.1,28394.1
745.9,27870.6,27870.6
745.5,28079.4,28079.4
745.1,27811.8,27811.8
744.7,28370.6,28370.6
744.3,28161.8,28161.8
743.9,28191.2,28191.2
743.5,28305.9,28305.9
743.1,28038.2,28038.2
742.7,28035.3,28035.3
742.3,27405.9,27405.9
741.9,27676.5,27676.5
741.5,28300,28300
741.1,27973.5,27973.5
740.7,28552.9,28552.9
740.3,28347.1,28347.1
739.9,28194.1,28194.1
739.5,28185.3,28185.3
739.1,27785.3,27785.3
738.7,28694.1,28694.1
738.3,28026.5,28026.5
737.9,28697.1,28697.1
737.5,28385.3,28385.3
737.1,28102.9,28102.9
736.7,28302.9,28302.9
736.3,28179.4,28179.4
735.9,28373.5,28373.5
735.5,28529.4,28529.4
735.1,28288.2,28288.2
734.7,27970.6,27970.6
734.3,28255.9,28255.9
733.9,28538.2,28538.2
733.5,28514.7,28514.7
733.1,28132.4,28132.4
732.7,27985.3,27985.3
732.3,28332.4,28332.4
731.9,27644.1,27644.1
731.5,28273.5,28273.5
731.1,28458.8,28458.8
730.7,27914.7,27914.7
730.3,28247.1,28247.1
729.9,28238.2,28238.2
729.5,28200,28200
729.1,27526.5,27526.5
728.7,28291.2,28291.2
728.3,27729.4,27729.4
727.9,27791.2,27791.2
727.5,28252.9,28252.9
727.1,28161.8,28161.8
726.7,28285.3,28285.3
726.3,27964.7,27964.7
725.9,28144.1,28144.1
725.5,27826.5,27826.5
725.1,28479.4,28479.4
724.7,28052.9,28052.9
724.3,28091.2,28091.2
723.9,28152.9,28152.9
723.5,28144.1,28144.1
723.1,28455.9,28455.9
722.7,28429.4,28429.4
722.3,28558.8,28558.8
721.9,29226.5,29226.5
721.5,28667.6,28667.6
721.1,28826.5,28826.5
720.7,28814.7,28814.7
720.3,28447.1,28447.1
719.9,29391.2,29391.2
719.5,29252.9,29252.9
719.1,29241.2,29241.2
718.7,29000,29000
718.3,29014.7,29014.7
717.9,29232.4,29232.4
717.5,28761.8,28761.8
717.1,29052.9,29052.9
716.7,28635.3,28635.3
716.3,28505.9,28505.9
715.9,28600,28600
715.5,28735.3,28735.3
715.1,28297.1,28297.1
714.7,28314.7,28314.7
714.3,28611.8,28611.8
713.9,28388.2,28388.2
713.5,28247.1,28247.1
713.1,28844.1,28844.1
712.7,28294.1,28294.1
712.3,28400,28400
711.9,28000,28000
711.5,28038.2,28038.2
711.1,27888.2,27888.2
710.7,27988.2,27988.2
710.3,27238.2,27238.2
709.9,27917.6,27917.6
709.5,27661.8,27661.8
709.1,27355.9,27355.9
708.7,27494.1,27494.1
708.3,27761.8,27761.8
707.9,27741.2,27741.2
707.5,26876.5,26876.5
707.1,27797.1,27797.1
706.7,26808.8,26808.8
706.3,27205.9,27205.9
705.9,26629.4,26629.4
705.5,26882.4,26882.4
705.1,26323.5,26323.5
704.7,26191.2,26191.2
704.3,26402.9,26402.9
703.9,26291.2,26291.2
703.5,25711.8,25711.8
703.1,26182.4,26182.4
702.7,26041.2,26041.2
702.3,26108.8,26108.8
701.9,25891.2,25891.2
701.5,26261.8,26261.8
701.1,25464.7,25464.7
700.7,25088.2,25088.2
700.3,25170.6,25170.6
699.9,25250,25250
699.5,24900,24900
699.1,24688.2,24688.2
698.7,24673.5,24673.5
698.3,24408.8,24408.8
697.9,24588.2,24588.2
697.5,24017.6,24017.6
697.1,23250,23250
696.7,24311.8,24311.8
696.3,24064.7,24064.7
695.9,23311.8,23311.8
695.5,23594.1,23594.1
695.1,23647.1,23647.1
694.7,23117.6,23117.6
694.3,23217.6,23217.6
693.9,23347.1,23347.1
693.5,23670.6,23670.6
693.1,22958.8,22958.8
692.7,23229.4,23229.4
692.3,23523.5,23330.4
691.9,23238.2,23252
691.5,23726.5,23171.6
691.1,25076.5,23089.7
690.7,25147.1,23006.9
690.3,28044.1,22923.4
689.9,32482.4,22840.3
689.5,40238.2,22759.3
689.1,51552.9,22683
688.7,64626.5,22615.3
688.3,73414.7,22560.4
687.9,70064.7,22521.2
687.5,56767.6,22496.8
687.1,42426.5,22483.2
686.7,32791.2,22475.7
686.3,27882.4,22471.5
685.9,25111.8,22469
685.5,24052.9,22467.2
685.1,24167.6,22466
684.7,23479.4,22465.3
684.3,22997.1,22464.9
683.9,23102.9,22464.7
683.5,22505.9,22464.7
683.1,22400,22464.7
682.7,22488.2,22488.2
682.3,22314.7,22314.7
681.9,22517.6,22517.6
681.5,22114.7,22114.7
681.1,22205.9,22205.9
680.7,21908.8,21908.8
680.3,21941.2,21941.2
679.9,22532.4,22532.4
679.5,22270.6,22270.6
679.1,22350,22350
678.7,22279.4,22279.4
678.3,21929.4,21929.4
677.9,21808.8,21808.8
677.5,22264.7,22264.7
677.1,22382.4,22382.4
676.7,22373.5,22373.5
676.3,22229.4,22229.4
675.9,22211.8,22211.8
675.5,22367.6,22367.6
675.1,21888.2,21888.2
674.7,21920.6,21920.6
674.3,21873.5,21873.5
673.9,22064.7,22064.7
673.5,22176.5,22176.5
673.1,21585.3,21585.3
672.7,22255.9,22255.9
672.3,21864.7,21864.7
671.9,21670.6,21670.6
671.5,22529.4,22529.4
671.1,22061.8,22061.8
670.7,22264.7,22264.7
670.3,22373.5,22373.5
669.9,22464.7,22464.7
669.5,22258.8,22258.8
669.1,22150,22150
668.7,22279.4,22279.4
668.3,22194.1,22194.1
667.9,21935.3,21935.3
667.5,22358.8,22358.8
667.1,21641.2,21641.2
666.7,22344.1,22344.1
666.3,22000,22000
665.9,21944.1,21944.1
665.5,21964.7,21964.7
665.1,21994.1,21994.1
664.7,22188.2,22188.2
664.3,21779.4,21779.4
663.9,21717.6,21717.6
663.5,22008.8,22008.8
663.1,21726.5,21726.5
662.7,22447.1,22447.1
662.3,21673.5,21673.5
661.9,21600,21600
661.5,21979.4,21979.4
661.1,21858.8,21858.8
660.7,21867.6,21867.6
660.3,21476.5,21476.5
659.9,21497.1,21497.1
659.5,21988.2,21988.2
659.1,22100,22100
658.7,21347.1,21347.1
658.3,22135.3,22135.3
657.9,22314.7,22314.7
657.5,22141.2,22141.2
657.1,21944.1,21944.1
656.7,22005.9,22005.9
656.3,21620.6,21620.6
655.9,21808.8,21808.8
655.5,21605.9,21605.9
655.1,21497.1,21497.1
654.7,22185.3,22185.3
654.3,21285.3,21285.3
653.9,21197.1,21197.1
653.5,22144.1,22144.1
653.1,21423.5,21423.5
652.7,21670.6,21670.6
652.3,21450,21450
651.9,21950,21950
651.5,22305.9,22305.9
651.1,22305.9,22305.9
650.7,22297.1,22297.1
650.3,22564.7,22564.7
649.9,22894.1,22894.1
649.5,22905.9,22905.9
649.1,22385.3,22385.3
648.7,22882.4,22882.4
648.3,23008.8,23008.8
647.9,22247.1,22247.1
647.5,21850,21850
647.1,21976.5,21976.5
646.7,21714.7,21714.7
646.3,21797.1,21797.1
645.9,21270.6,21270.6
645.5,20917.6,20917.6
645.1,20776.5,20776.5
644.7,20820.6,20820.6
644.3,20920.6,20920.6
643.9,20800,20800
643.5,21226.5,21226.5
643.1,21011.8,21011.8
642.7,21120.6,21120.6
642.3,21314.7,21314.7
641.9,21323.5,21323.5
641.5,21320.6,21320.6
641.1,21052.9,21052.9
640.7,21173.5,21173.5
640.3,21114.7,21114.7
639.9,20770.6,20770.6
639.5,20723.5,20723.5
639.1,20270.6,20270.6
638.7,20500,20500
638.3,20476.5,20476.5
637.9,20091.2,20091.2
637.5,19935.3,19935.3
637.1,20488.2,20488.2
636.7,19629.4,19629.4
636.3,19967.6,19967.6
635.9,19452.9,19452.9
635.5,19344.1,19344.1
635.1,19152.9,19152.9
634.7,19447.1,19447.1
634.3,19314.7,19314.7
633.9,19285.3,19285.3
633.5,19241.2,19241.2
633.1,18979.4,18979.4
632.7,19241.2,19241.2
632.3,19467.6,19467.6
631.9,19511.8,19511.8
631.5,19144.1,19144.1
631.1,19202.9,19202.9
630.7,19614.7,19614.7
630.3,19667.6,19667.6
629.9,19508.8,19508.8
629.5,19461.8,19461.8
629.1,19741.2,19741.2
628.7,19400,19400
628.3,19294.1,19294.1
627.9,19185.3,19185.3
627.5,19164.7,19164.7
627.1,19238.2,19238.2
626.7,18794.1,18794.1
626.3,18835.3,18835.3
625.9,18982.4,18982.4
625.5,18582.4,18582.4
625.1,18723.5,18723.5
624.7,18673.5,18673.5
624.3,18908.8,18908.8
623.9,18647.1,18647.1
623.5,18982.4,18982.4
623.1,18435.3,18435.3
622.7,18476.5,18476.5
622.3,18673.5,18673.5
621.9,18614.7,18614.7
621.5,18382.4,18382.4
621.1,18408.8,18408.8
620.7,18194.1,18194.1
620.3,18341.2,18341.2
619.9,18676.5,18676.5
619.5,18026.5,18026.5
619.1,18558.8,18558.8
618.7,18420.6,18420.6
618.3,18664.7,18664.7
617.9,18223.5,18223.5
617.5,18358.8,18358.8
617.1,18455.9,18455.9
616.7,17914.7,17914.7
616.3,18479.4,18479.4
615.9,18282.4,18282.4
615.5,18291.2,18291.2
615.1,18220.6,18220.6
614.7,17920.6,17920.6
614.3,18438.2,18438.2
613.9,18191.2,18191.2
613.5,18400,18400
613.1,18432.4,18432.4
612.7,18397.1,18397.1
612.3,18055.9,18055.9
611.9,18235.3,18235.3
611.5,17438.2,17438.2
611.1,17855.9,17855.9
610.7,18002.9,18002.9
610.3,18464.7,18464.7
609.9,18064.7,18064.7
609.5,18985.3,18985.3
609.1,18302.9,18302.9
608.7,17697.1,17697.1
608.3,18435.3,18435.3
607.9,18455.9,18455.9
607.5,17908.8,17908.8
607.1,18385.3,18385.3
606.7,18473.5,18473.5
606.3,18397.1,18397.1
605.9,17688.2,17688.2
605.5,18247.1,18247.1
605.1,18191.2,18191.2
604.7,18423.5,18423.5
604.3,18026.5,18026.5
603.9,17891.2,17891.2
603.5,18523.5,18523.5
603.1,17920.6,17920.6
602.7,18417.6,18417.6
602.3,18002.9,18002.9
601.9,18488.2,18488.2
601.5,18435.3,18435.3
601.1,17973.5,17973.5
600.7,18558.8,18558.8
600.3,18250,18250
599.9,18397.1,18397.1
599.5,18576.5,18576.5
599.1,18320.6,18320.6
598.7,18088.2,18088.2
598.3,18564.7,18564.7
597.9,18358.8,18358.8
597.5,18088.2,18088.2
597.1,17958.8,17958.8
596.7,18241.2,18241.2
596.3,18282.4,18282.4
595.9,18082.4,18082.4
595.5,18255.9,18255.9
595.1,18438.2,18438.2
594.7,18511.8,18511.8
594.3,18455.9,18455.9
593.9,18826.5,18826.5
593.5,18229.4,18229.4
593.1,18667.6,18667.6
592.7,18129.4,18129.4
592.3,18188.2,18188.2
591.9,18414.7,18414.7
591.5,18220.6,18220.6
591.1,18276.5,18276.5
590.7,18367.6,18367.6
590.3,18085.3,18085.3
589.9,18473.5,18473.5
589.5,18064.7,18064.7
589.1,18135.3,18135.3
588.7,17888.2,17888.2
588.3,18376.5,18376.5
587.9,17894.1,17894.1
587.5,17852.9,17852.9
587.1,17791.2,17791.2
586.7,17823.5,17823.5
586.3,17652.9,17652.9
585.9,17829.4,17829.4
585.5,17852.9,17852.9
585.1,17691.2,17691.2
584.7,17958.8,17958.8
584.3,17800,17800
583.9,17558.8,17558.8
583.5,18029.4,18029.4
583.1,17629.4,17629.4
582.7,17485.3,17485.3
582.3,17476.5,17476.5
581.9,17508.8,17508.8
581.5,17585.3,17585.3
581.1,17394.1,17394.1
580.7,17511.8,17511.8
580.3,17194.1,17194.1
579.9,17555.9,17555.9
579.5,17605.9,17605.9
579.1,17794.1,17794.1
578.7,17502.9,17502.9
578.3,17723.5,17723.5
577.9,17405.9,17405.9
577.5,17191.2,17191.2
577.1,17508.8,17508.8
576.7,17705.9,17705.9
576.3,17664.7,17664.7
575.9,18032.4,18032.4
575.5,17811.8,17811.8
575.1,17985.3,17985.3
574.7,18447.1,18447.1
574.3,18164.7,18164.7
573.9,18297.1,18297.1
573.5,18205.9,18205.9
573.1,18205.9,18205.9
572.7,18608.8,18608.8
572.3,18814.7,18814.7
571.9,18485.3,18485.3
571.5,18432.4,18432.4
571.1,19144.1,19144.1
570.7,20191.2,20191.2
570.3,20735.3,20735.3
569.9,21211.8,21211.8
569.5,21958.8,21958.8
569.1,21688.2,21688.2
568.7,20952.9,20952.9
568.3,20000,20000
567.9,18823.5,18823.5
567.5,18326.5,18326.5
567.1,17808.8,17808.8
566.7,17158.8,17158.8
566.3,16708.8,16708.8
565.9,16426.5,16426.5
565.5,16182.4,16182.4
565.1,15455.9,15455.9
564.7,15617.6,15617.6
564.3,15105.9,15105.9
563.9,15070.6,15070.6
563.5,14738.2,14738.2
563.1,14200,14200
562.7,13826.5,13826.5
562.3,14041.2,14041.2
561.9,14317.6,14317.6
561.5,13976.5,13976.5
561.1,14032.4,14032.4
560.7,13652.9,13652.9
560.3,14138.2,14138.2
559.9,13782.4,13782.4
559.5,14252.9,14252.9
559.1,13429.4,13429.4
558.7,13767.6,13767.6
558.3,13841.2,13841.2
557.9,13858.8,13858.8
557.5,14067.6,14067.6
557.1,14085.3,14085.3
556.7,13920.6,13920.6
556.3,14155.9,14155.9
555.9,14079.4,14079.4
555.5,14352.9,14352.9
555.1,14182.4,14182.4
554.7,14476.5,14476.5
554.3,14652.9,14652.9
553.9,14150,14150
553.5,14250,14250
553.1,14411.8,14411.8
552.7,14661.8,14661.8
552.3,14323.5,14323.5
551.9,14541.2,14541.2
551.5,14132.4,14132.4
551.1,14729.4,14729.4
550.7,14117.6,14117.6
550.3,14411.8,14411.8
549.9,14385.3,14385.3
549.5,14491.2,14491.2
549.1,14432.4,14432.4
548.7,13835.3,13835.3
548.3,13508.8,13508.8
547.9,13232.4,13232.4
547.5,12900,12900
547.1,12785.3,12785.3
546.7,12476.5,12476.5
546.3,12402.9,12402.9
545.9,11841.2,11841.2
545.5,11573.5,11573.5
545.1,11044.1,11044.1
544.7,10988.2,10988.2
544.3,11079.4,11079.4
543.9,10620.6,10620.6
543.5,10370.6,10370.6
543.1,10352.9,10352.9
542.7,9908.82,9908.82
542.3,9876.47,9876.47
541.9,9802.94,9802.94
541.5,9502.94,9502.94
541.1,9376.47,9376.47
540.7,9023.53,9023.53
540.3,8900,8900
539.9,8773.53,8773.53
539.5,8264.71,8264.71
539.1,8376.47,8376.47
538.7,7988.24,7988.24
538.3,7947.06,7947.06
537.9,8267.65,8267.65
537.5,8226.47,8226.47
537.1,7988.24,7988.24
536.7,8520.59,8269.61
536.3,8300,8217.1
535.9,8317.65,8162.93
535.5,8473.53,8107.23
535.1,8650,8050.16
534.7,8894.12,7991.9
534.3,9632.35,7932.66
533.9,11385.3,7872.8
533.5,14058.8,7812.93
533.1,20441.2,7753.94
532.7,30464.7,7697.7
532.3,41482.4,7647.05
531.9,46052.9,7605.07
531.5,41691.2,7573.11
531.1,33305.9,7550.1
530.7,26182.4,7533.85
530.3,22105.9,7522.52
529.9,18705.9,7515.04
529.5,15238.2,7510.53
529.1,11802.9,7508.06
528.7,9552.94,7506.74
528.3,8723.53,7505.96
527.9,8041.18,7505.51
527.5,8126.47,7505.19
527.1,7700,7505.04
526.7,7697.06,7504.95
526.3,7676.47,7504.9
525.9,7458.82,7504.9
525.5,7379.41,7379.41
525.1,7241.18,7241.18
524.7,7188.24,7188.24
524.3,6911.76,6911.76
523.9,7176.47,7176.47
523.5,7050,7050
523.1,7100,7100
522.7,6929.41,6929.41
522.3,7105.88,7105.88
521.9,7367.65,7367.65
521.5,6823.53,6823.53
521.1,6961.76,6961.76
520.7,7000,7000
520.3,7055.88,7055.88
519.9,6941.18,6941.18
519.5,6932.35,6932.35
519.1,7079.41,7079.41
518.7,6885.29,6885.29
518.3,7164.71,7164.71
517.9,6952.94,6952.94
517.5,7123.53,7123.53
517.1,7167.65,7167.65
516.7,7261.76,7261.76
516.3,7023.53,7023.53
515.9,6905.88,6905.88
515.5,7076.47,7076.47
515.1,7100,7100
514.7,7085.29,7085.29
514.3,7223.53,7223.53
513.9,7197.06,7197.06
513.5,6826.47,6826.47
513.1,7255.88,7255.88
512.7,6688.24,6688.24
512.3,6852.94,6852.94
511.9,7041.18,7041.18
511.5,7102.94,7102.94
511.1,6973.53,6973.53
510.7,7244.12,7244.12
510.3,6541.18,6541.18
509.9,6920.59,6920.59
509.5,7050,7050
509.1,7167.65,7167.65
508.7,7205.88,7205.88
508.3,6973.53,6973.53
507.9,7188.24,7188.24
507.5,7150,7150
507.1,7158.82,7158.82
506.7,7261.76,7261.76
506.3,7400,7400
505.9,7123.53,7123.53
505.5,7297.06,7297.06
505.1,6900,6900
504.7,7123.53,7123.53
504.3,6988.24,6988.24
503.9,7102.94,7102.94
503.5,7255.88,7255.88
503.1,7197.06,7197.06
502.7,7114.71,7114.71
502.3,7114.71,7114.71
501.9,7311.76,7311.76
501.5,7694.12,7694.12
501.1,7311.76,7311.76
500.7,7273.53,7273.53
500.3,7326.47,7326.47
499.9,7773.53,7773.53
499.5,7076.47,7076.47
499.1,7385.29,7385.29
498.7,7411.76,7411.76
498.3,7347.06,7347.06
497.9,7641.18,7641.18
497.5,7341.18,7341.18
497.1,7202.94,7202.94
496.7,7255.88,7255.88
496.3,7402.94,7402.94
495.9,7241.18,7241.18
495.5,7170.59,7170.59
495.1,7373.53,7373.53
494.7,7508.82,7508.82
494.3,7361.76,7361.76
493.9,7338.24,7338.24
493.5,7182.35,7182.35
493.1,7532.35,7532.35
492.7,7276.47,7276.47
492.3,7150,7150
491.9,7388.24,7388.24
491.5,7350,7350
491.1,7308.82,7308.82
490.7,7408.82,7408.82
490.3,7179.41,7179.41
489.9,7444.12,7444.12
489.5,7488.24,7488.24
489.1,7414.71,7414.71
488.7,7273.53,7273.53
488.3,7520.59,7520.59
487.9,7370.59,7370.59
487.5,7635.29,7635.29
487.1,7279.41,7279.41
486.7,7238.24,7238.24
486.3,7517.65,7517.65
485.9,7097.06,7097.06
485.5,7435.29,7435.29
485.1,7461.76,7461.76
484.7,7355.88,7355.88
484.3,7447.06,7447.06
483.9,7552.94,7552.94
483.5,7700,7700
483.1,7358.82,7358.82
482.7,7479.41,7479.41
482.3,7529.41,7529.41
481.9,7408.82,7408.82
481.5,7405.88,7405.88
481.1,7508.82,7508.82
480.7,7541.18,7541.18
480.3,7602.94,7602.94
479.9,7361.76,7361.76
479.5,7420.59,7420.59
479.1,7435.29,7435.29
478.7,7479.41,7479.41
478.3,7552.94,7552.94
477.9,7388.24,7388.24
477.5,7852.94,7852.94
477.1,7364.71,7364.71
476.7,7461.76,7461.76
476.3,7532.35,7532.35
475.9,7626.47,7626.47
475.5,7729.41,7729.41
475.1,7276.47,7276.47
474.7,7582.35,7582.35
474.3,7679.41,7679.41
473.9,7429.41,7429.41
473.5,7573.53,7573.53
473.1,7676.47,7676.47
472.7,7523.53,7523.53
472.3,7279.41,7279.41
471.9,7441.18,7441.18
471.5,7791.18,7791.18
471.1,7711.76,7711.76
470.7,7617.65,7617.65
470.3,7676.47,7676.47
469.9,7411.76,7411.76
469.5,7720.59,7720.59
469.1,7441.18,7441.18
468.7,7341.18,7341.18
468.3,7488.24,7488.24
467.9,7600,7600
467.5,7476.47,7476.47
467.1,7494.12,7494.12
466.7,7317.65,7317.65
466.3,7538.24,7538.24
465.9,7708.82,7708.82
465.5,7470.59,7470.59
465.1,7444.12,7444.12
464.7,7497.06,7497.06
464.3,7629.41,7629.41
463.9,7794.12,7794.12
463.5,7750,7750
463.1,7770.59,7770.59
462.7,7726.47,7726.47
462.3,7605.88,7605.88
461.9,7520.59,7520.59
461.5,7711.76,7711.76
461.1,7958.82,7958.82
460.7,7855.88,7855.88
460.3,7697.06,7697.06
459.9,7494.12,7494.12
459.5,7811.76,7811.76
459.1,7538.24,7538.24
458.7,7452.94,7452.94
458.3,8250,8250
457.9,7661.76,7661.76
457.5,7855.88,7855.88
457.1,8079.41,8079.41
456.7,7805.88,7805.88
456.3,7764.71,7764.71
455.9,7452.94,7452.94
455.5,7655.88,7655.88
455.1,7702.94,7702.94
454.7,7697.06,7697.06
454.3,7558.82,7558.82
453.9,7467.65,7467.65
453.5,7711.76,7711.76
453.1,7570.59,7570.59
452.7,7935.29,7935.29
452.3,7826.47,7826.47
451.9,7585.29,7585.29
451.5,7826.47,7826.47
451.1,7976.47,7976.47
450.7,7938.24,7938.24
450.3,7747.06,7747.06
449.9,7732.35,7732.35
449.5,7785.29,7785.29
449.1,7897.06,7897.06
448.7,8152.94,8152.94
448.3,7538.24,7538.24
447.9,8094.12,8094.12
447.5,8220.59,8220.59
447.1,8085.29,8085.29
446.7,7955.88,7955.88
446.3,7761.76,7761.76
445.9,7947.06,7947.06
445.5,8008.82,8008.82
445.1,7864.71,7864.71
444.7,7767.65,7767.65
444.3,8247.06,8247.06
443.9,7988.24,7988.24
443.5,7773.53,7773.53
443.1,8026.47,8026.47
442.7,8050,8050
442.3,8229.41,8229.41
441.9,7832.35,7832.35
441.5,8064.71,8064.71
441.1,7808.82,7808.82
440.7,7835.29,7835.29
440.3,8035.29,8035.29
439.9,8058.82,8058.82
439.5,8188.24,8188.24
439.1,7991.18,7991.18
438.7,8114.71,8114.71
438.3,7920.59,7920.59
437.9,8211.76,8211.76
437.5,7982.35,7982.35
437.1,8497.06,8497.06
436.7,7994.12,7994.12
436.3,8105.88,8105.88
435.9,8047.06,8047.06
435.5,8070.59,8070.59
435.1,8088.24,8088.24
434.7,7970.59,7970.59
434.3,8123.53,8123.53
433.9,8017.65,8017.65
433.5,8002.94,8002.94
433.1,7905.88,7905.88
432.7,7988.24,7988.24
432.3,8238.24,8238.24
431.9,8235.29,8235.29
431.5,8208.82,8208.82
431.1,8338.24,8338.24
430.7,8188.24,8188.24
430.3,8038.24,8038.24
429.9,8061.76,8061.76
429.5,8335.29,8335.29
429.1,8411.76,8411.76
428.7,8085.29,8085.29
428.3,8267.65,8267.65
427.9,8164.71,8164.71
427.5,8035.29,8035.29
427.1,8023.53,8023.53
426.7,8452.94,8452.94
426.3,8267.65,8267.65
425.9,8300,8300
425.5,8288.24,8288.24
425.1,8311.76,8311.76
424.7,8561.76,8561.76
424.3,8523.53,8523.53
423.9,8244.12,8244.12
423.5,8279.41,8279.41
423.1,8164.71,8164.71
422.7,8479.41,8479.41
422.3,8552.94,8552.94
421.9,8376.47,8376.47
421.5,8355.88,8355.88
421.1,8561.76,8561.76
420.7,8455.88,8455.88
420.3,8508.82,8508.82
419.9,8320.59,8320.59
419.5,8352.94,8352.94
419.1,8382.35,8382.35
418.7,8200,8200
418.3,8370.59,8370.59
417.9,8305.88,8305.88
417.5,8132.35,8132.35
417.1,8026.47,8026.47
416.7,8250,8250
416.3,8026.47,8026.47
415.9,8085.29,8085.29
415.5,8079.41,8079.41
415.1,8147.06,8147.06
414.7,8188.24,8188.24
414.3,8264.71,8264.71
413.9,8458.82,8458.82
413.5,8147.06,8147.06
413.1,8320.59,8320.59
412.7,8258.82,8258.82
412.3,7994.12,7994.12
411.9,7888.24,7888.24
411.5,8011.76,8011.76
411.1,8152.94,8152.94
410.7,8094.12,8094.12
410.3,7720.59,7720.59
409.9,8155.88,8155.88
409.5,7950,7950
409.1,7602.94,7602.94
408.7,7844.12,7844.12
408.3,7958.82,7958.82
407.9,7747.06,7747.06
407.5,8205.88,8205.88
407.1,7864.71,7864.71
406.7,8182.35,8182.35
406.3,7882.35,7882.35
405.9,8026.47,8026.47
405.5,7852.94,7852.94
405.1,7958.82,7893.14
404.7,7867.65,7896.16
404.3,8041.18,7899.18
403.9,8455.88,7902.21
403.5,8664.71,7905.23
403.1,9532.35,7908.25
402.7,10955.9,7911.27
402.3,12676.5,7914.3
401.9,13270.6,7917.32
401.5,11538.2,7920.34
401.1,9741.18,7923.37
400.7,9241.18,7926.39
400.3,8894.12,7929.41
399.9,10000,7932.43
399.5,11402.9,7935.46
399.1,13400,7938.48
398.7,13135.3,7941.5
398.3,11885.3,7944.53
397.9,9773.53,7947.55
397.5,8805.88,7950.57
397.1,8367.65,7953.59
396.7,8032.35,7956.62
396.3,7888.24,7959.64
395.9,8097.06,7962.66
395.5,7797.06,7965.69
395.1,8002.94,8002.94
394.7,8088.24,8088.24
394.3,7911.76,7911.76
393.9,7882.35,7882.35
393.5,8082.35,8082.35
393.1,7882.35,7882.35
392.7,7867.65,7867.65
392.3,7900,7900
391.9,8264.71,8264.71
391.5,8241.18,8241.18
391.1,7664.71,7664.71
390.7,8105.88,8105.88
390.3,8064.71,8064.71
389.9,8070.59,8070.59
389.5,7773.53,7773.53
389.1,7920.59,7920.59
388.7,8008.82,8008.82
388.3,8050,8050
387.9,8255.88,8255.88
387.5,7982.35,7982.35
387.1,7917.65,7917.65
386.7,7964.71,7964.71
386.3,7835.29,7835.29
385.9,8191.18,8191.18
385.5,8320.59,8320.59
385.1,8114.71,8114.71
384.7,8255.88,8255.88
384.3,8241.18,8241.18
383.9,8335.29,8335.29
383.5,8235.29,8235.29
383.1,8100,8100
382.7,7967.65,7967.65
382.3,8108.82,8108.82
381.9,8194.12,8194.12
381.5,8329.41,8329.41
381.1,8400,8400
380.7,8152.94,8152.94
380.3,8341.18,8341.18
379.9,8229.41,8229.41
379.5,8214.71,8214.71
379.1,8214.71,8214.71
378.7,8220.59,8220.59
378.3,8032.35,8032.35
377.9,8529.41,8529.41
377.5,8264.71,8264.71
377.1,7950,7950
376.7,8423.53,8423.53
376.3,8308.82,8308.82
375.9,8676.47,8676.47
375.5,8223.53,8223.53
375.1,8608.82,8608.82
374.7,8405.88,8405.88
374.3,8250,8250
373.9,8552.94,8552.94
373.5,8258.82,8258.82
373.1,8432.35,8432.35
372.7,8305.88,8305.88
372.3,8591.18,8591.18
371.9,8176.47,8176.47
371.5,8564.71,8564.71
371.1,8491.18,8491.18
370.7,8570.59,8570.59
370.3,8488.24,8488.24
369.9,8561.76,8561.76
369.5,8279.41,8279.41
369.1,8473.53,8473.53
368.7,8476.47,8476.47
368.3,8391.18,8391.18
367.9,8611.76,8611.76
367.5,8447.06,8447.06
367.1,8532.35,8532.35
366.7,8708.82,8708.82
366.3,8394.12,8394.12
365.9,8588.24,8588.24
365.5,8723.53,8723.53
365.1,8573.53,8573.53
364.7,8367.65,8367.65
364.3,8488.24,8488.24
363.9,8785.29,8785.29
363.5,8717.65,8717.65
363.1,8535.29,8535.29
362.7,8417.65,8417.65
362.3,8747.06,8747.06
361.9,8320.59,8320.59
361.5,8588.24,8588.24
361.1,8579.41,8579.41
360.7,8476.47,8476.47
360.3,8723.53,8723.53
359.9,8744.12,8744.12
359.5,8829.41,8829.41
359.1,8764.71,8764.71
358.7,8938.24,8938.24
358.3,8605.88,8605.88
357.9,8879.41,8879.41
357.5,8752.94,8752.94
357.1,9038.24,9038.24
356.7,8370.59,8370.59
356.3,8894.12,8894.12
355.9,8691.18,8691.18
355.5,9135.29,9135.29
355.1,9114.71,9114.71
354.7,8944.12,8944.12
354.3,9020.59,9020.59
353.9,9020.59,9020.59
353.5,8973.53,8973.53
353.1,8861.76,8861.76
352.7,8923.53,8923.53
352.3,9076.47,9076.47
351.9,9129.41,9129.41
351.5,9014.71,9014.71
351.1,8914.71,8914.71
350.7,9079.41,9079.41
350.3,9017.65,9017.65
349.9,9205.88,9205.88
349.5,9308.82,9308.82
349.1,9200,9200
348.7,9152.94,9152.94
348.3,9076.47,9076.47
347.9,9288.24,9288.24
347.5,9500,9500
347.1,9464.71,9464.71
346.7,9458.82,9458.82
346.3,9505.88,9505.88
345.9,9450,9450
345.5,9182.35,9182.35
345.1,9361.76,9361.76
344.7,9226.47,9226.47
344.3,9191.18,9191.18
343.9,9117.65,9117.65
343.5,9126.47,9126.47
343.1,9117.65,9117.65
342.7,9200,9200
342.3,9088.24,9088.24
341.9,9464.71,9464.71
341.5,9264.71,9264.71
341.1,9261.76,9261.76
340.7,9232.35,9232.35
340.3,9564.71,9564.71
339.9,9250,9250
339.5,9247.06,9247.06
339.1,9311.76,9311.76
338.7,9626.47,9626.47
338.3,9600,9600
337.9,9605.88,9605.88
337.5,9455.88,9455.88
337.1,9326.47,9326.47
336.7,9179.41,9179.41
336.3,9226.47,9226.47
335.9,9691.18,9691.18
335.5,9758.82,9758.82
335.1,9732.35,9732.35
334.7,9597.06,9597.06
334.3,9300,9300
333.9,9535.29,9535.29
333.5,9800,9800
333.1,9491.18,9491.18
332.7,9564.71,9564.71
332.3,9326.47,9326.47
331.9,9650,9650
331.5,9558.82,9558.82
331.1,9582.35,9582.35
330.7,9779.41,9779.41
330.3,9241.18,9241.18
329.9,9461.76,9461.76
329.5,9576.47,9576.47
329.1,9738.24,9738.24
328.7,9552.94,9552.94
328.3,9641.18,9641.18
327.9,9779.41,9779.41
327.5,9750,9750
327.1,9567.65,9567.65
326.7,9808.82,9808.82
326.3,9888.24,9888.24
325.9,9520.59,9520.59
325.5,9979.41,9979.41
325.1,9544.12,9544.12
324.7,9832.35,9832.35
324.3,9647.06,9647.06
323.9,9647.06,9647.06
323.5,10123.5,10123.5
323.1,9844.12,9844.12
322.7,9776.47,9776.47
322.3,9929.41,9929.41
321.9,9682.35,9682.35
321.5,9808.82,9808.82
321.1,10191.2,10191.2
320.7,10050,10050
320.3,10073.5,10073.5
319.9,10014.7,10014.7
319.5,10220.6,10220.6
319.1,10144.1,10144.1
318.7,10238.2,10238.2
318.3,9991.18,9991.18
317.9,10117.6,10117.6
317.5,10223.5,10223.5
317.1,10185.3,10185.3
316.7,10579.4,10579.4
316.3,10452.9,10452.9
315.9,10041.2,10041.2
315.5,10094.1,10094.1
315.1,10014.7,10014.7
314.7,10732.4,10732.4
314.3,10611.8,10611.8
313.9,10264.7,10264.7
313.5,10600,10600
313.1,10588.2,10588.2
312.7,10532.4,10532.4
312.3,10200,10200
311.9,10347.1,10347.1
311.5,10329.4,10329.4
311.1,10694.1,10694.1
310.7,10626.5,10626.5
310.3,10461.8,10461.8
309.9,10391.2,10391.2
309.5,10517.6,10517.6
309.1,10676.5,10676.5
308.7,10414.7,10414.7
308.3,10470.6,10470.6
307.9,10864.7,10864.7
307.5,10800,10800
307.1,10720.6,10720.6
306.7,10820.6,10820.6
306.3,11011.8,11011.8
305.9,10979.4,10979.4
305.5,10823.5,10823.5
305.1,10823.5,10823.5
304.7,10835.3,10835.3
304.3,10614.7,10614.7
303.9,10985.3,10985.3
303.5,10561.8,10561.8
303.1,10444.1,10444.1
302.7,10358.8,10358.8
302.3,10420.6,10420.6
301.9,10623.5,10623.5
301.5,9955.88,9955.88
301.1,10214.7,10214.7
300.7,10041.2,10041.2
300.3,9514.71,9514.71
299.9,9408.82,9408.82
299.5,9441.18,9441.18
299.1,9152.94,9152.94
298.7,9255.88,9255.88
298.3,9126.47,9126.47
297.9,8714.71,8714.71
297.5,8626.47,8626.47
297.1,8391.18,8391.18
296.7,8226.47,8226.47
296.3,8497.06,8497.06
295.9,7911.76,7911.76
295.5,7900,7900
295.1,7685.29,7685.29
294.7,7714.71,7714.71
294.3,7611.76,7611.76
293.9,8129.41,8129.41
293.5,8532.35,8532.35
293.1,10361.8,10361.8
292.7,12200,12200
292.3,13432.4,13432.4
291.9,11764.7,11764.7
291.5,9244.12,9244.12
291.1,7658.82,7658.82
290.7,7097.06,7353.92
290.3,7305.88,7330.81
289.9,7426.47,7306.82
289.5,7714.71,7282.03
289.1,8232.35,7256.51
288.7,8541.18,7230.4
288.3,9191.18,7203.79
287.9,9770.59,7176.82
287.5,11011.8,7149.64
287.1,14141.2,7122.47
286.7,19505.9,7095.77
286.3,26117.6,7070.29
285.9,30200,7046.91
285.5,34444.1,7026.21
285.1,40335.3,7008.77
284.7,43941.2,6995.38
284.3,38888.2,6986.51
283.9,28400,6981.57
283.5,17629.4,6979.28
283.1,11385.3,6978.3
282.7,8673.53,6977.86
282.3,7802.94,6977.63
281.9,7717.65,6977.51
281.5,7076.47,6977.47
281.1,7152.94,6977.45
280.7,6702.94,6702.94
280.3,6711.76,6711.76
279.9,6747.06,6747.06
279.5,6650,6650
279.1,6458.82,6458.82
278.7,6355.88,6355.88
278.3,6267.65,6267.65
277.9,6273.53,6273.53
277.5,6444.12,6444.12
277.1,6267.65,6267.65
276.7,6220.59,6220.59
276.3,6285.29,6285.29
275.9,6232.35,6232.35
275.5,5961.76,5961.76
275.1,6217.65,6217.65
274.7,6223.53,6223.53
274.3,6467.65,6467.65
273.9,6376.47,6376.47
273.5,6129.41,6129.41
273.1,6167.65,6167.65
272.7,6455.88,6455.88
272.3,6376.47,6376.47
271.9,6208.82,6208.82
271.5,6020.59,6020.59
271.1,6358.82,6358.82
270.7,6305.88,6305.88
270.3,6226.47,6226.47
269.9,6302.94,6302.94
269.5,6311.76,6311.76
269.1,6247.06,6247.06
268.7,6347.06,6347.06
268.3,6364.71,6364.71
267.9,6258.82,6258.82
267.5,6202.94,6202.94
267.1,6347.06,6347.06
266.7,6444.12,6444.12
266.3,6400,6400
265.9,6220.59,6220.59
265.5,6391.18,6391.18
265.1,6605.88,6605.88
264.7,6370.59,6370.59
264.3,6461.76,6461.76
263.9,6297.06,6297.06
263.5,6417.65,6417.65
263.1,6458.82,6458.82
262.7,6476.47,6476.47
262.3,6326.47,6326.47
261.9,6288.24,6288.24
261.5,6408.82,6408.82
261.1,6338.24,6338.24
260.7,6558.82,6558.82
260.3,6470.59,6470.59
259.9,6432.35,6432.35
259.5,6635.29,6635.29
259.1,6576.47,6576.47
258.7,6408.82,6408.82
258.3,6376.47,6376.47
257.9,6238.24,6238.24
257.5,6561.76,6561.76
257.1,6632.35,6632.35
256.7,6550,6550
256.3,6641.18,6641.18
255.9,6717.65,6717.65
255.5,6667.65,6667.65
255.1,6426.47,6426.47
254.7,6694.12,6694.12
254.3,6467.65,6467.65
253.9,6664.71,6664.71
253.5,6600,6600
253.1,6544.12,6544.12
252.7,6638.24,6638.24
252.3,6488.24,6488.24
251.9,6579.41,6579.41
251.5,6517.65,6517.65
251.1,6432.35,6432.35
250.7,6205.88,6205.88
250.3,6594.12,6594.12
249.9,6358.82,6358.82
249.5,6594.12,6594.12
249.1,6364.71,6364.71
248.7,6270.59,6270.59
248.3,6494.12,6494.12
247.9,6714.71,6714.71
247.5,6782.35,6782.35
247.1,6270.59,6270.59
246.7,6732.35,6732.35
246.3,6744.12,6744.12
245.9,6358.82,6358.82
245.5,6470.59,6470.59
245.1,6382.35,6382.35
244.7,6302.94,6302.94
244.3,6202.94,6202.94
243.9,6302.94,6302.94
243.5,6088.24,6088.24
243.1,6141.18,6141.18
242.7,6238.24,6238.24
242.3,6076.47,6076.47
241.9,6255.88,6255.88
241.5,6476.47,6476.47
241.1,6041.18,6041.18
240.7,6391.18,6391.18
240.3,6032.35,6032.35
239.9,6050,6050
239.5,5917.65,5917.65
239.1,6214.71,6214.71
238.7,6270.59,6270.59
238.3,6632.35,6632.35
237.9,6138.24,6138.24
237.5,6429.41,6429.41
237.1,6226.47,6226.47
236.7,6220.59,6220.59
236.3,6358.82,6358.82
235.9,6370.59,6370.59
235.5,6452.94,6452.94
235.1,7126.47,7126.47
234.7,7164.71,7164.71
234.3,7923.53,7923.53
233.9,8732.35,8732.35
233.5,9511.76,9511.76
233.1,10200,10200
232.7,10926.5,10926.5
232.3,11032.4,11032.4
231.9,10567.6,10567.6
231.5,9432.35,9432.35
231.1,8467.65,8467.65
230.7,7823.53,7823.53
230.3,7311.76,7311.76
229.9,6852.94,6852.94
229.5,6682.35,6682.35
229.1,6694.12,6694.12
228.7,6714.71,6714.71
228.3,6470.59,6470.59
227.9,6729.41,6729.41
227.5,6414.71,6414.71
227.1,6497.06,6497.06
226.7,6241.18,6241.18
226.3,6291.18,6291.18
225.9,6623.53,6623.53
225.5,6179.41,6179.41
225.1,6011.76,6011.76
224.7,6285.29,6285.29
224.3,6141.18,6141.18
223.9,6161.76,6161.76
223.5,5905.88,5905.88
223.1,6235.29,6235.29
222.7,5950,5950
222.3,6150,6150
221.9,6273.53,6273.53
221.5,6161.76,6161.76
221.1,6467.65,6467.65
220.7,6023.53,6023.53
220.3,6182.35,6182.35
219.9,6158.82,6158.82
219.5,6191.18,6191.18
219.1,6114.71,6114.71
218.7,6308.82,6308.82
218.3,6450,6450
217.9,6144.12,6144.12
217.5,6197.06,6197.06
217.1,6220.59,6220.59
216.7,6370.59,6370.59
216.3,6273.53,6273.53
215.9,5850,5850
215.5,6061.76,6061.76
215.1,6129.41,6129.41
214.7,6294.12,6294.12
214.3,6282.35,6282.35
213.9,6200,6200
213.5,6064.71,6064.71
213.1,6208.82,6208.82
212.7,6241.18,6241.18
212.3,6664.71,6664.71
211.9,6391.18,6391.18
211.5,6544.12,6544.12
211.1,6097.06,6097.06
210.7,6100,6100
210.3,6170.59,6170.59
209.9,6429.41,6429.41
209.5,6273.53,6273.53
209.1,6050,6050
208.7,6255.88,6255.88
208.3,6079.41,6079.41
207.9,6297.06,6297.06
207.5,6197.06,6197.06
207.1,6276.47,6276.47
206.7,6141.18,6141.18
206.3,6335.29,6335.29
205.9,6326.47,6326.47
205.5,6447.06,6447.06
205.1,6188.24,6188.24
204.7,6167.65,6167.65
204.3,6191.18,6191.18
203.9,6170.59,6170.59
203.5,6350,6350
203.1,6511.76,6511.76
202.7,6232.35,6232.35
202.3,6397.06,6397.06
201.9,6255.88,6255.88
201.5,6176.47,6176.47
201.1,6338.24,6338.24
200.7,6200,6200
200.3,6417.65,6417.65
199.9,6402.94,6402.94
199.5,6197.06,6197.06
199.1,6532.35,6532.35
198.7,6258.82,6258.82
198.3,6308.82,6308.82
197.9,6514.71,6514.71
197.5,6264.71,6264.71
197.1,6379.41,6379.41
196.7,6202.94,6202.94
196.3,6397.06,6397.06
195.9,6270.59,6270.59
195.5,6450,6450
195.1,6285.29,6285.29
194.7,6608.82,6608.82
194.3,6452.94,6452.94
193.9,6464.71,6464.71
193.5,6461.76,6461.76
193.1,6626.47,6626.47
192.7,6529.41,6529.41
192.3,6617.65,6617.65
191.9,6373.53,6373.53
191.5,6555.88,6555.88
191.1,6688.24,6688.24
190.7,6538.24,6538.24
190.3,6485.29,6485.29
189.9,6752.94,6752.94
189.5,6608.82,6608.82
189.1,6320.59,6320.59
188.7,6388.24,6388.24
188.3,6455.88,6455.88
187.9,6479.41,6479.41
187.5,6679.41,6679.41
187.1,6394.12,6394.12
186.7,6635.29,6635.29
186.3,6564.71,6564.71
185.9,6344.12,6344.12
185.5,6097.06,6097.06
185.1,6608.82,6608.82
184.7,6397.06,6397.06
184.3,6335.29,6335.29
183.9,6170.59,6170.59
183.5,6205.88,6205.88
183.1,6429.41,6429.41
182.7,6279.41,6279.41
182.3,6255.88,6255.88
181.9,6305.88,6305.88
181.5,6144.12,6144.12
181.1,6120.59,6120.59
180.7,5979.41,5979.41
180.3,6055.88,6055.88
179.9,5870.59,5870.59
179.5,6000,6000
179.1,5979.41,5979.41
178.7,6011.76,6011.76
178.3,5902.94,5902.94
177.9,5885.29,5885.29
177.5,5876.47,5876.47
177.1,5705.88,5705.88
176.7,5779.41,5779.41
176.3,5841.18,5841.18
175.9,5891.18,5891.18
175.5,5708.82,5708.82
175.1,5841.18,5841.18
174.7,5808.82,5808.82
174.3,5797.06,5797.06
173.9,5626.47,5626.47
173.5,5814.71,5814.71
173.1,5902.94,5902.94
172.7,5961.76,5920.59
172.3,5897.06,5918.81
171.9,5888.24,5916.99
171.5,6029.41,5915.13
171.1,6364.71,5913.23
170.7,6929.41,5911.32
170.3,8652.94,5909.42
169.9,10791.2,5907.61
169.5,12308.8,5905.96
169.1,13544.1,5904.55
168.7,15170.6,5903.42
168.3,15347.1,5902.64
167.9,12591.2,5902.22
167.5,8911.76,5902.05
167.1,6929.41,5901.99
166.7,6073.53,5901.97
166.3,6141.18,5901.96
165.9,5752.94,5901.96
165.5,5929.41,5901.96
165.1,6023.53,6023.53
164.7,5817.65,5817.65
164.3,5755.88,5755.88
163.9,5938.24,5938.24
163.5,5747.06,5747.06
163.1,5729.41,5729.41
162.7,5870.59,5870.59
162.3,5691.18,5691.18
161.9,5738.24,5738.24
161.5,5585.29,5585.29
161.1,5814.71,5814.71
160.7,5729.41,5729.41
160.3,5697.06,5697.06
159.9,5644.12,5644.12
159.5,5676.47,5676.47
159.1,5620.59,5620.59
158.7,5708.82,5708.82
158.3,5605.88,5605.88
157.9,5708.82,5708.82
157.5,5541.18,5541.18
157.1,5923.53,5923.53
156.7,5588.24,5588.24
156.3,5552.94,5552.94
155.9,5476.47,5476.47
155.5,5935.29,5935.29
155.1,5823.53,5823.53
154.7,5520.59,5520.59
154.3,5635.29,5635.29
153.9,5670.59,5670.59
153.5,5720.59,5720.59
153.1,6061.76,6061.76
152.7,5882.35,5882.35
152.3,5855.88,5855.88
151.9,6008.82,6008.82
151.5,5811.76,5811.76
151.1,5670.59,5670.59
150.7,5567.65,5567.65
150.3,5764.71,5764.71
149.9,5950,5950
149.5,5582.35,5582.35
149.1,5811.76,5811.76
148.7,5929.41,5929.41
148.3,5738.24,5738.24
147.9,5820.59,5820.59
147.5,5658.82,5658.82
147.1,5873.53,5873.53
146.7,5855.88,5855.88
146.3,6058.82,6058.82
145.9,5661.76,5661.76
145.5,5867.65,5867.65
145.1,5788.24,5788.24
144.7,5744.12,5744.12
144.3,5855.88,5855.88
143.9,5632.35,5632.35
143.5,5679.41,5679.41
143.1,5708.82,5708.82
142.7,5608.82,5608.82
142.3,5717.65,5717.65
141.9,5561.76,5561.76
141.5,5776.47,5776.47
141.1,5570.59,5570.59
140.7,5682.35,5682.35
140.3,5800,5800
139.9,5655.88,5655.88
139.5,5517.65,5517.65
139.1,5679.41,5679.41
138.7,5776.47,5776.47
138.3,5647.06,5647.06
137.9,5673.53,5673.53
137.5,5752.94,5752.94
137.1,5617.65,5617.65
136.7,5644.12,5644.12
136.3,5311.76,5311.76
135.9,5761.76,5761.76
135.5,5732.35,5732.35
135.1,5714.71,5714.71
134.7,5814.71,5814.71
134.3,5744.12,5744.12
133.9,5735.29,5735.29
133.5,5632.35,5632.35
133.1,5470.59,5470.59
132.7,5505.88,5505.88
132.3,5761.76,5761.76
131.9,5785.29,5785.29
131.5,6035.29,6035.29
131.1,5685.29,5685.29
130.7,5838.24,5838.24
130.3,5691.18,5691.18
129.9,5505.88,5505.88
129.5,5414.71,5414.71
129.1,5470.59,5470.59
128.7,5476.47,5476.47
128.3,5661.76,5661.76
127.9,5588.24,5588.24
127.5,5711.76,5711.76
127.1,5717.65,5717.65
126.7,5808.82,5808.82
126.3,5773.53,5773.53
125.9,5667.65,5667.65
125.5,5788.24,5788.24
125.1,5858.82,5858.82
124.7,6064.71,6064.71
124.3,6232.35,6232.35
123.9,6244.12,6244.12
123.5,6561.76,6561.76
123.1,6541.18,6541.18
122.7,7226.47,7226.47
122.3,7020.59,7020.59
121.9,7191.18,7191.18
121.5,7058.82,7058.82
121.1,7026.47,7026.47
120.7,6361.76,6361.76
120.3,5985.29,5985.29
119.9,5670.59,5670.59
119.5,5514.71,5514.71
119.1,5523.53,5523.53
118.7,5361.76,5361.76
118.3,5241.18,5241.18
117.9,5088.24,5088.24
117.5,5191.18,5191.18
117.1,5020.59,5020.59
116.7,5038.24,5038.24
116.3,4894.12,4894.12
115.9,5038.24,5038.24
115.5,5023.53,5023.53
115.1,4794.12,4794.12
114.7,4594.12,4594.12
114.3,5014.71,5014.71
113.9,4950,4950
113.5,4982.35,4982.35
113.1,4791.18,4791.18
112.7,4711.76,4711.76
112.3,4679.41,4679.41
111.9,4920.59,4920.59
111.5,4864.71,4864.71
111.1,5023.53,5023.53
110.7,5026.47,5026.47
110.3,4873.53,4873.53
109.9,4988.24,4988.24
109.5,5017.65,5017.65
109.1,4667.65,4667.65
108.7,4726.47,4726.47
108.3,4950,4950
107.9,4832.35,4832.35
107.5,4905.88,4905.88
107.1,4847.06,4847.06
106.7,4879.41,4879.41
106.3,4876.47,4876.47
105.9,4755.88,4755.88
105.5,4788.24,4788.24
105.1,4802.94,4802.94
104.7,4873.53,4873.53
104.3,4735.29,4735.29
103.9,4697.06,4697.06
103.5,5058.82,5058.82
103.1,4908.82,4908.82
102.7,5102.94,5102.94
102.3,4847.06,4847.06
101.9,5052.94,5052.94
101.5,5067.65,5067.65
101.1,4982.35,4982.35
100.7,5038.24,5038.24
100.3,4970.59,4970.59
99.9,4985.29,4985.29
99.5,4905.88,4905.88
99.1,5032.35,5032.35
98.7,4902.94,4902.94
98.3,4997.06,4997.06
97.9,4961.76,4961.76
97.5,4852.94,4852.94
97.1,4752.94,4752.94
96.7,4661.76,4661.76
96.3,4538.24,4538.24
95.9,4894.12,4894.12
95.5,5088.24,5088.24
95.1,4935.29,4935.29
94.7,4879.41,4879.41
94.3,4829.41,4829.41
93.9,5044.12,5044.12
93.5,4679.41,4679.41
93.1,5008.82,5008.82
92.7,4605.88,4605.88
92.3,4797.06,4797.06
91.9,4629.41,4629.41
91.5,4350,4350
91.1,4708.82,4708.82
90.7,4535.29,4535.29
90.3,4364.71,4364.71
89.9,4297.06,4297.06
89.5,4223.53,4223.53
89.1,3944.12,3944.12
88.7,4188.24,4188.24
88.3,4229.41,4229.41
87.9,4252.94,4252.94
87.5,4073.53,4073.53
87.1,4070.59,4070.59
86.7,3991.18,3991.18
86.3,3935.29,3935.29
85.9,4129.41,4129.41
85.5,3967.65,3967.65
85.1,3958.82,3958.82
84.7,3947.06,3947.06
84.3,3961.76,3961.76
83.9,4032.35,4032.35
83.5,3973.53,3973.53
83.1,4176.47,4176.47
82.7,3876.47,3876.47
82.3,3797.06,3797.06
81.9,3979.41,3979.41
81.5,3941.18,3941.18
81.1,3970.59,3970.59
80.7,4435.29,4435.29
80.3,4558.82,4558.82
79.9,4676.47,4676.47
79.5,4926.47,4926.47
79.1,5408.82,5408.82
78.7,5611.76,5611.76
78.3,5988.24,5988.24
77.9,6620.59,6620.59
77.5,6785.29,6785.29
77.1,7282.35,7282.35
76.7,7767.65,7767.65
76.3,7161.76,7161.76
75.9,7517.65,7517.65
75.5,7261.76,7261.76
75.1,7585.29,7585.29
74.7,7447.06,7447.06
74.3,7335.29,7335.29
73.9,6608.82,6608.82
73.5,5661.76,5661.76
73.1,4458.82,4458.82
72.7,4202.94,4202.94
72.3,3373.53,3373.53
71.9,3376.47,3376.47
71.5,3011.76,3011.76
71.1,3091.18,3091.18
70.7,2597.06,2597.06
70.3,2573.53,2573.53
69.9,2670.59,2670.59
69.5,2452.94,2452.94
69.1,2314.71,2314.71
68.7,2505.88,2505.88
68.3,2270.59,2270.59
67.9,2308.82,2308.82
67.5,2341.18,2341.18
67.1,2252.94,2252.94
66.7,2317.65,2317.65
66.3,2329.41,2329.41
65.9,2108.82,2108.82
65.5,2185.29,2185.29
65.1,2273.53,2273.53
64.7,2350,2350
64.3,2141.18,2141.18
63.9,2297.06,2297.06
63.5,2291.18,2291.18
63.1,2167.65,2167.65
62.7,2129.41,2129.41
62.3,2091.18,2091.18
61.9,2176.47,2176.47
61.5,2255.88,2255.88
61.1,2152.94,2152.94
60.7,2158.82,2158.82
60.3,2164.71,2164.71
59.9,2244.12,2244.12
59.5,2088.24,2088.24
59.1,2111.76,2111.76
58.7,2182.35,2182.35
58.3,2214.71,2214.71
57.9,2279.41,2279.41
57.5,2147.06,2147.06
57.1,2011.76,2011.76
56.7,2220.59,2220.59
56.3,2150,2150
55.9,2320.59,2320.59
55.5,2147.06,2147.06
55.1,2155.88,2155.88
54.7,2267.65,2267.65
54.3,2147.06,2147.06
53.9,2055.88,2055.88
53.5,2052.94,2052.94
53.1,2229.41,2229.41
52.7,2058.82,2058.82
52.3,2158.82,2158.82
51.9,2044.12,2044.12
51.5,2185.29,2185.29
51.1,2041.18,2041.18
50.7,2079.41,2079.41
50.3,2158.82,2158.82
49.9,2064.71,2064.71
49.5,2111.76,2111.76
49.1,2073.53,2073.53
48.7,2170.59,2170.59
48.3,2091.18,2091.18
47.9,2091.18,2091.18
47.5,2032.35,2032.35
47.1,2167.65,2167.65
46.7,2126.47,2126.47
46.3,1982.35,1982.35
45.9,2064.71,2064.71
45.5,2164.71,2164.71
45.1,1955.88,1955.88
44.7,1994.12,1994.12
44.3,1997.06,1997.06
43.9,2108.82,2108.82
43.5,2208.82,2208.82
43.1,1997.06,1997.06
42.7,2002.94,2002.94
42.3,1958.82,1958.82
41.9,2002.94,2002.94
41.5,2141.18,2141.18
41.1,2038.24,2038.24
40.7,1970.59,1970.59
40.3,2052.94,2052.94
39.9,2188.24,2188.24
39.5,2120.59,2120.59
39.1,2102.94,2102.94
38.7,2232.35,2232.35
38.3,2297.06,2297.06
37.9,2297.06,2297.06
37.5,2326.47,2326.47
37.1,2358.82,2358.82
36.7,2597.06,2597.06
36.3,2538.24,2538.24
35.9,2744.12,2744.12
35.5,2870.59,2870.59
35.1,2826.47,2826.47
34.7,2905.88,2905.88
34.3,2897.06,2897.06
33.9,3055.88,3055.88
33.5,3052.94,3052.94
33.1,2988.24,2988.24
32.7,3182.35,3182.35
32.3,2941.18,2941.18
31.9,2823.53,2823.53
31.5,2529.41,2529.41
31.1,2473.53,2473.53
30.7,2361.76,2361.76
30.3,2211.76,2211.76
29.9,2350,2350
29.5,2232.35,2232.35
29.1,2291.18,2291.18
28.7,2276.47,2276.47
28.3,2332.35,2332.35
27.9,2273.53,2273.53
27.5,2226.47,2226.47
27.1,2282.35,2282.35
26.7,2141.18,2141.18
26.3,2226.47,2226.47
25.9,2382.35,2382.35
25.5,2338.24,2338.24
25.1,2352.94,2352.94
24.7,2550,2550
24.3,2411.76,2411.76
23.9,2088.24,2088.24
23.5,2123.53,2123.53
23.1,2044.12,2044.12
22.7,1902.94,1902.94
22.3,1900,1900
21.9,1976.47,1976.47
21.5,1958.82,1958.82
21.1,1594.12,1594.12
20.7,1755.88,1755.88
20.3,1655.88,1655.88
19.9,1729.41,1729.41
19.5,1673.53,1673.53
19.1,1785.29,1785.29
18.7,2211.76,2211.76
18.3,2185.29,2185.29
17.9,2038.24,2038.24
17.5,1911.76,1911.76
17.1,1805.88,1805.88
16.7,1852.94,1852.94
16.3,1708.82,1708.82
15.9,1617.65,1617.65
15.5,1802.94,1802.94
15.1,1944.12,1944.12
14.7,2017.65,2017.65
14.3,1882.35,1882.35
13.9,1779.41,1779.41
13.5,1564.71,1564.71
13.1,1502.94,1502.94
12.7,1608.82,1608.82
12.3,1685.29,1685.29
11.9,1908.82,1908.82
11.5,2061.76,2061.76
11.1,1967.65,1967.65
10.7,2141.18,2141.18
10.3,1950,1950
9.9,2017.65,2017.65
9.5,1864.71,1864.71
9.1,1752.94,1752.94
8.7,1441.18,1441.18
8.3,1214.71,1214.71
7.9,1282.35,1282.35
7.5,1232.35,1232.35
7.1,1311.76,1311.76
6.7,1517.65,1517.65
6.3,1547.06,1547.06
5.9,1597.06,1597.06
5.5,1764.71,1764.71
5.1,1735.29,1735.29
4.7,1841.18,1841.18
4.3,1888.24,1888.24
3.9,2167.65,2167.65
3.5,2770.59,2770.59
3.1,3297.06,3297.06
2.7,3520.59,3520.59
2.3,2917.65,2917.65
1.9,2279.41,2279.41
1.5,1650,1650
1.1,1208.82,1208.82
0.7,961.765,961.765
0.3,726.471,726.471
-0.1,500,500
-0.5,391.176,391.176
-0.9,270.588,270.588
-1.3,300,300
