,,,,,,,
,,,,,,,
Characteristic Energy eV,1486.6,Acquisition Time s,5,,,,
BE_S 2p 2,CPS_S 2p 2,S 2p_1_S 2p 2,S 2p_2_S 2p 2,S 2p_3_S 2p 2,S 2p_4_S 2p 2,Background_S 2p 2,Envelope_S 2p 2
174,11199,11199,11199,11199.3,11199.3,11199,11199.7
173.875,11118.4,11118.4,11118.4,11118.7,11118.8,11118.4,11119.2
173.75,11232.2,11232.2,11232.2,11232.6,11232.6,11232.2,11233.1
173.625,11227.4,11227.4,11227.4,11227.8,11227.9,11227.4,11228.3
173.5,11104.6,11104.6,11104.6,11105,11105.1,11104.6,11105.6
173.375,11096.2,11096.2,11096.2,11096.7,11096.8,11096.2,11097.3
173.25,11318.4,11318.4,11318.4,11318.9,11319.1,11318.4,11319.6
173.125,11231.2,11231.2,11231.2,11231.8,11231.9,11231.2,11232.6
173,11173,11173,11173,11173.6,11173.8,11173,11174.5
172.875,11234.6,11234.6,11234.6,11235.3,11235.6,11234.6,11236.3
172.75,11234.2,11234.3,11234.2,11234.9,11235.3,11234.2,11236.1
172.625,11220.4,11220.5,11220.4,11221.2,11221.7,11220.4,11222.6
172.5,11186.4,11186.5,11186.4,11187.3,11188,11186.4,11189
172.375,11291.2,11213.6,11213.6,11214.5,11215.4,11213.5,11216.5
172.25,11252.8,11216.1,11216.1,11217.1,11218.3,11216,11219.5
172.125,11150,11218.6,11218.6,11219.8,11221.3,11218.5,11222.6
172,11159.8,11221.1,11221,11222.4,11224.4,11221,11225.9
171.875,11183.4,11223.5,11223.5,11225.1,11227.7,11223.5,11229.4
171.75,11227,11226,11226,11227.8,11231.1,11226,11233.1
171.625,11309.2,11228.5,11228.5,11230.6,11234.9,11228.4,11237.1
171.5,11228.4,11231,11231,11233.4,11238.9,11230.9,11241.5
171.375,11324.4,11233.5,11233.5,11236.3,11243.3,11233.4,11246.3
171.25,11226.6,11236,11236,11239.4,11248,11235.9,11251.6
171.125,11252.2,11238.5,11238.5,11242.6,11253.2,11238.4,11257.6
171,11259.4,11241,11240.9,11245.9,11258.9,11240.9,11264.2
170.875,11266.6,11243.4,11243.4,11249.5,11265.2,11243.4,11271.5
170.75,11284.4,11245.9,11245.9,11253.4,11271.9,11245.8,11279.6
170.625,11234.6,11248.4,11248.4,11257.7,11279,11248.3,11288.6
170.5,11265,11250.9,11250.9,11262.5,11286.6,11250.8,11298.4
170.375,11324.6,11253.4,11253.4,11267.7,11294.4,11253.3,11309.1
170.25,11361.4,11255.9,11255.9,11273.7,11302.4,11255.8,11320.5
170.125,11323.8,11258.4,11258.4,11280.4,11310.4,11258.3,11332.7
170,11365.6,11260.9,11260.8,11287.9,11318.1,11260.7,11345.5
169.875,11321,11263.4,11263.3,11296.4,11325.4,11263.2,11358.8
169.75,11507.2,11265.9,11265.8,11305.9,11332,11265.7,11372.5
169.625,11271.2,11268.3,11268.3,11316.4,11337.8,11268.2,11386.3
169.5,11323.2,11270.8,11270.8,11327.8,11342.7,11270.7,11400.1
169.375,11385.2,11273.3,11273.3,11340.1,11346.3,11273.2,11413.6
169.25,11388.8,11275.8,11275.8,11353.1,11348.8,11275.7,11426.6
169.125,11492.4,11278.3,11278.3,11366.5,11350.1,11278.1,11438.9
169,11434.6,11280.8,11280.8,11380,11350.3,11280.6,11450.1
168.875,11499.4,11283.3,11283.3,11393.2,11349.5,11283.1,11460
168.75,11519.6,11285.8,11285.8,11405.8,11347.9,11285.6,11468.5
168.625,11481,11288.3,11288.3,11417.2,11345.5,11288.1,11475.1
168.5,11485.6,11290.8,11290.8,11427.2,11342.8,11290.6,11479.8
168.375,11472,11293.3,11293.3,11435.2,11339.8,11293,11482.4
168.25,11549.2,11295.8,11295.8,11441.1,11336.8,11295.5,11482.9
168.125,11472.2,11298.3,11298.3,11444.7,11333.9,11298,11481.1
168,11478.2,11300.8,11300.8,11445.8,11331.3,11300.5,11477.2
167.875,11520.2,11303.3,11303.3,11444.7,11329.1,11303,11471.5
167.75,11451,11305.8,11305.8,11441.4,11327.4,11305.5,11464
167.625,11420.4,11308.3,11308.3,11436.3,11326.1,11307.9,11455.2
167.5,11385.2,11310.8,11310.8,11429.7,11325.4,11310.4,11445.5
167.375,11383.8,11313.3,11313.4,11422.1,11325.1,11312.9,11435.1
167.25,11437.2,11315.8,11315.9,11413.8,11325.3,11315.4,11424.6
167.125,11408.4,11318.4,11318.4,11405.2,11325.9,11317.9,11414.2
167,11425.4,11320.9,11321,11396.8,11326.8,11320.4,11404.4
166.875,11299.8,11323.4,11323.5,11388.9,11328,11322.9,11395.3
166.75,11379.6,11325.9,11326.1,11381.6,11329.5,11325.3,11387.2
166.625,11396.8,11328.5,11328.7,11375.2,11331.2,11327.8,11380.1
166.5,11379,11331,11331.3,11369.8,11333.1,11330.3,11374.2
166.375,11383.8,11333.6,11333.9,11365.4,11335.1,11332.8,11369.5
166.25,11355.2,11336.1,11336.5,11362,11337.2,11335.3,11365.9
166.125,11388.2,11338.7,11339.2,11359.5,11339.3,11337.8,11363.4
166,11364.2,11341.3,11341.9,11357.8,11341.6,11340.2,11361.8
165.875,11431.6,11343.9,11344.6,11356.9,11343.9,11342.7,11361.1
165.75,11406.8,11346.5,11347.4,11356.6,11346.2,11345.2,11361.1
165.625,11455.2,11349.1,11350.4,11356.9,11348.5,11347.7,11361.8
165.5,11315.8,11351.8,11353.4,11357.6,11350.9,11350.2,11363.2
165.375,11489.8,11354.5,11356.7,11358.7,11353.3,11352.7,11365.2
165.25,11346.6,11357.2,11360.2,11360.1,11355.7,11355.2,11367.7
165.125,11421.6,11359.9,11364.1,11361.7,11358.2,11357.6,11371
165,11447.4,11362.7,11368.6,11363.5,11360.6,11360.1,11375.1
164.875,11452.2,11365.6,11373.9,11365.5,11363,11362.6,11380.2
164.75,11412.6,11368.6,11380.4,11367.5,11365.5,11365.1,11386.8
164.625,11616.4,11371.7,11388.6,11369.7,11367.9,11367.6,11395.2
164.5,11527.8,11375,11399.1,11371.9,11370.4,11370.1,11406.1
164.375,11503.2,11378.5,11412.4,11374.1,11372.8,11372.5,11420.2
164.25,11380.2,11382.3,11429.4,11376.4,11375.3,11375,11438.3
164.125,11484.4,11386.6,11450.5,11378.7,11377.8,11377.5,11461
164,11574,11391.5,11475.9,11381.1,11380.2,11380,11488.7
163.875,11527,11397.4,11505.6,11383.5,11382.7,11382.5,11521.7
163.75,11605.8,11404.8,11538.6,11385.8,11385.2,11385,11559.5
163.625,11567.4,11414.2,11573.5,11388.2,11387.6,11387.4,11601.3
163.5,11798.4,11426.5,11608.1,11390.7,11390.1,11389.9,11645.6
163.375,11690.4,11442.8,11639.7,11393.1,11392.6,11392.4,11690.9
163.25,11819.2,11464.3,11665.6,11395.5,11395,11394.9,11735.8
163.125,11835.4,11492.4,11683.3,11397.9,11397.5,11397.4,11779
163,11776.4,11528.3,11691.2,11400.4,11400,11399.9,11820.3
162.875,11844.8,11572.9,11688.5,11402.8,11402.5,11402.4,11859.7
162.75,11869.2,11626.2,11676.1,11405.3,11404.9,11404.8,11897.9
162.625,11894.2,11687.1,11655.4,11407.7,11407.4,11407.3,11935.6
162.5,11899.4,11753.2,11628.8,11410.2,11409.9,11409.8,11972.7
162.375,11943.4,11820.8,11599.3,11412.6,11412.4,11412.3,12008.2
162.25,11920.4,11884.9,11569.3,11415.1,11414.9,11414.8,12039.8
162.125,12014,11939.8,11541.2,11417.6,11417.3,11417.3,12064.1
162,12121.8,11980.5,11516.3,11420,11419.8,11419.7,12077.4
161.875,12113.8,12002.7,11495.7,11422.5,11422.3,11422.2,12076.5
161.75,12037.4,12004.1,11479.5,11425,11424.8,11424.7,12059.2
161.625,12145.6,11985.1,11467.4,11427.4,11427.3,11427.2,12025.6
161.5,11992.2,11947.9,11459,11429.9,11429.7,11429.7,11977.5
161.375,11901.8,11896.8,11453.4,11432.4,11432.2,11432.2,11918.3
161.25,11945.6,11837.2,11450.1,11434.8,11434.7,11434.7,11852.9
161.125,11814.4,11774.5,11448.5,11437.3,11437.2,11437.1,11786.2
161,11708.6,11713.7,11448.1,11439.8,11439.7,11439.6,11722.4
160.875,11632.8,11658.4,11448.6,11442.3,11442.2,11442.1,11665.1
160.75,11619,11610.9,11449.6,11444.7,11444.6,11444.6,11616.1
160.625,11488.6,11572.1,11451.1,11447.2,11447.1,11447.1,11576.3
160.5,11575.8,11541.9,11452.8,11449.7,11449.6,11449.6,11545.3
160.375,11561.4,11519.4,11454.7,11452.2,11452.1,11452,11522.3
160.25,11412.8,11503.4,11456.8,11454.6,11454.6,11454.5,11505.8
160.125,11433.2,11492.5,11458.9,11457.1,11457,11457,11494.6
160,11463.8,11485.5,11461.1,11459.6,11459.5,11459.5,11487.3
159.875,11460,11481.3,11463.4,11462.1,11462,11462,11482.8
159.75,11448.6,11479.1,11465.7,11464.6,11464.5,11464.5,11480.4
159.625,11410,11478.2,11468,11467,11467,11466.9,11479.4
159.5,11409,11478.3,11470.4,11469.5,11469.5,11469.4,11479.4
159.375,11576.4,11479,11472.8,11472,11471.9,11471.9,11480
159.25,11486,11480.2,11475.1,11474.5,11474.4,11474.4,11481.1
159.125,11421.4,11426.2,11422.1,11421.5,11421.4,11421.4,11427
159,11481.6,11485.7,11482.2,11481.7,11481.6,11481.6,11486.4
158.875,11536.4,11539.9,11536.9,11536.5,11536.4,11536.4,11540.5
158.75,11527.6,11530.6,11528.1,11527.7,11527.6,11527.6,11531.2
158.625,11516.4,11519,11516.8,11516.5,11516.4,11516.4,11519.5
158.5,11522.8,11525.1,11523.2,11522.9,11522.8,11522.8,11525.6
158.375,11468.4,11470.4,11468.8,11468.5,11468.4,11468.4,11470.9
158.25,11570.6,11572.4,11570.9,11570.7,11570.6,11570.6,11572.8
158.125,11535.4,11537,11535.7,11535.5,11535.4,11535.4,11537.4
158,11460.4,11461.8,11460.7,11460.5,11460.4,11460.4,11462.2
