,
,
Characteristic Energy eV,1486.6
BE_Sur1 1,CPS_Sur1 1
1399.6,61152.9
1399.2,61667.6
1398.8,60585.3
1398.4,61094.1
1398,61197.1
1397.6,60747.1
1397.2,60035.3
1396.8,60800
1396.4,60985.3
1396,60041.2
1395.6,60935.3
1395.2,60350
1394.8,60920.6
1394.4,59829.4
1394,60355.9
1393.6,59985.3
1393.2,60617.6
1392.8,60438.2
1392.4,60347.1
1392,59944.1
1391.6,59341.2
1391.2,59585.3
1390.8,59864.7
1390.4,60097.1
1390,59894.1
1389.6,59211.8
1389.2,58826.5
1388.8,59735.3
1388.4,59620.6
1388,60067.6
1387.6,59235.3
1387.2,58735.3
1386.8,58620.6
1386.4,59505.9
1386,58994.1
1385.6,58529.4
1385.2,58888.2
1384.8,57529.4
1384.4,58261.8
1384,57761.8
1383.6,57838.2
1383.2,58073.5
1382.8,58055.9
1382.4,58173.5
1382,57970.6
1381.6,57729.4
1381.2,57950
1380.8,57308.8
1380.4,57520.6
1380,57238.2
1379.6,57279.4
1379.2,57452.9
1378.8,56264.7
1378.4,56620.6
1378,56232.4
1377.6,57473.5
1377.2,57061.8
1376.8,57223.5
1376.4,56432.4
1376,56370.6
1375.6,56864.7
1375.2,56350
1374.8,56288.2
1374.4,55897.1
1374,56467.6
1373.6,56064.7
1373.2,55841.2
1372.8,55405.9
1372.4,56085.3
1372,55800
1371.6,55176.5
1371.2,55794.1
1370.8,55402.9
1370.4,55100
1370,55620.6
1369.6,54591.2
1369.2,55370.6
1368.8,54994.1
1368.4,54152.9
1368,54852.9
1367.6,54211.8
1367.2,54314.7
1366.8,53576.5
1366.4,54835.3
1366,53876.5
1365.6,53811.8
1365.2,54429.4
1364.8,53941.2
1364.4,54829.4
1364,53638.2
1363.6,53350
1363.2,54532.4
1362.8,53811.8
1362.4,54326.5
1362,53826.5
1361.6,52891.2
1361.2,53197.1
1360.8,53488.2
1360.4,54291.2
1360,53408.8
1359.6,53426.5
1359.2,52664.7
1358.8,53000
1358.4,52141.2
1358,52347.1
1357.6,52717.6
1357.2,52305.9
1356.8,52226.5
1356.4,51994.1
1356,52608.8
1355.6,52114.7
1355.2,51508.8
1354.8,51797.1
1354.4,51923.5
1354,51788.2
1353.6,51876.5
1353.2,51364.7
1352.8,50976.5
1352.4,50814.7
1352,50994.1
1351.6,50941.2
1351.2,50623.5
1350.8,50826.5
1350.4,50479.4
1350,51547.1
1349.6,51047.1
1349.2,50597.1
1348.8,50394.1
1348.4,49714.7
1348,50055.9
1347.6,50555.9
1347.2,49988.2
1346.8,50338.2
1346.4,49829.4
1346,49776.5
1345.6,49832.4
1345.2,49788.2
1344.8,49241.2
1344.4,49614.7
1344,49291.2
1343.6,49676.5
1343.2,49429.4
1342.8,49720.6
1342.4,49450
1342,48950
1341.6,49005.9
1341.2,48894.1
1340.8,48997.1
1340.4,48994.1
1340,47844.1
1339.6,48652.9
1339.2,48582.4
1338.8,48694.1
1338.4,47291.2
1338,48314.7
1337.6,47900
1337.2,47770.6
1336.8,48132.4
1336.4,47726.5
1336,47994.1
1335.6,47397.1
1335.2,48194.1
1334.8,47597.1
1334.4,47829.4
1334,47785.3
1333.6,47514.7
1333.2,47288.2
1332.8,47305.9
1332.4,46379.4
1332,46308.8
1331.6,46023.5
1331.2,46011.8
1330.8,45767.6
1330.4,45858.8
1330,45900
1329.6,45429.4
1329.2,45888.2
1328.8,45676.5
1328.4,45141.2
1328,44923.5
1327.6,44661.8
1327.2,44582.4
1326.8,45079.4
1326.4,44450
1326,44664.7
1325.6,44108.8
1325.2,44623.5
1324.8,44729.4
1324.4,44441.2
1324,44676.5
1323.6,44655.9
1323.2,44761.8
1322.8,44200
1322.4,44211.8
1322,44117.6
1321.6,43423.5
1321.2,43817.6
1320.8,43464.7
1320.4,43461.8
1320,43276.5
1319.6,43073.5
1319.2,43532.4
1318.8,43188.2
1318.4,43032.4
1318,42097.1
1317.6,43017.6
1317.2,42502.9
1316.8,42782.4
1316.4,42505.9
1316,42044.1
1315.6,42282.4
1315.2,42055.9
1314.8,42400
1314.4,41923.5
1314,41708.8
1313.6,41497.1
1313.2,41661.8
1312.8,41770.6
1312.4,41108.8
1312,41717.6
1311.6,41376.5
1311.2,41582.4
1310.8,41108.8
1310.4,41720.6
1310,41241.2
1309.6,41064.7
1309.2,40676.5
1308.8,41041.2
1308.4,41123.5
1308,40388.2
1307.6,40532.4
1307.2,40441.2
1306.8,41370.6
1306.4,40673.5
1306,41114.7
1305.6,41179.4
1305.2,40611.8
1304.8,41229.4
1304.4,40420.6
1304,40852.9
1303.6,40194.1
1303.2,40185.3
1302.8,40600
1302.4,40373.5
1302,41052.9
1301.6,40202.9
1301.2,40791.2
1300.8,41035.3
1300.4,40929.4
1300,40564.7
1299.6,40600
1299.2,40632.4
1298.8,40497.1
1298.4,40082.4
1298,39470.6
1297.6,39929.4
1297.2,39014.7
1296.8,39861.8
1296.4,39514.7
1296,40173.5
1295.6,40155.9
1295.2,39464.7
1294.8,39032.4
1294.4,39470.6
1294,39011.8
1293.6,39023.5
1293.2,39350
1292.8,39570.6
1292.4,38614.7
1292,39241.2
1291.6,38488.2
1291.2,39220.6
1290.8,39338.2
1290.4,39188.2
1290,39232.4
1289.6,38747.1
1289.2,39408.8
1288.8,39526.5
1288.4,39182.4
1288,39494.1
1287.6,38805.9
1287.2,38797.1
1286.8,39191.2
1286.4,38688.2
1286,37879.4
1285.6,39241.2
1285.2,38600
1284.8,39202.9
1284.4,38650
1284,38829.4
1283.6,38864.7
1283.2,38985.3
1282.8,38711.8
1282.4,38602.9
1282,38547.1
1281.6,39076.5
1281.2,38870.6
1280.8,38800
1280.4,38641.2
1280,37944.1
1279.6,38194.1
1279.2,38091.2
1278.8,38091.2
1278.4,38385.3
1278,37767.6
1277.6,37994.1
1277.2,37544.1
1276.8,38732.4
1276.4,38335.3
1276,38188.2
1275.6,38461.8
1275.2,37705.9
1274.8,38147.1
1274.4,38067.6
1274,38167.6
1273.6,38447.1
1273.2,37967.6
1272.8,37814.7
1272.4,37994.1
1272,38526.5
1271.6,37652.9
1271.2,38555.9
1270.8,38108.8
1270.4,37697.1
1270,37638.2
1269.6,37323.5
1269.2,37832.4
1268.8,37461.8
1268.4,37923.5
1268,38144.1
1267.6,37950
1267.2,37267.6
1266.8,38205.9
1266.4,37458.8
1266,37400
1265.6,37885.3
1265.2,37417.6
1264.8,37826.5
1264.4,37758.8
1264,38350
1263.6,37708.8
1263.2,37658.8
1262.8,37794.1
1262.4,37694.1
1262,37200
1261.6,37502.9
1261.2,37358.8
1260.8,37844.1
1260.4,37288.2
1260,37629.4
1259.6,38205.9
1259.2,37444.1
1258.8,37623.5
1258.4,37720.6
1258,37647.1
1257.6,37505.9
1257.2,37511.8
1256.8,37791.2
1256.4,37385.3
1256,37261.8
1255.6,38014.7
1255.2,37900
1254.8,37620.6
1254.4,38147.1
1254,37861.8
1253.6,38250
1253.2,37000
1252.8,37891.2
1252.4,38152.9
1252,37729.4
1251.6,37608.8
1251.2,38114.7
1250.8,38182.4
1250.4,38547.1
1250,38173.5
1249.6,38541.2
1249.2,38508.8
1248.8,38717.6
1248.4,38561.8
1248,38167.6
1247.6,37755.9
1247.2,38026.5
1246.8,38847.1
1246.4,38464.7
1246,38061.8
1245.6,38708.8
1245.2,38308.8
1244.8,38600
1244.4,38420.6
1244,38076.5
1243.6,37788.2
1243.2,38332.4
1242.8,37147.1
1242.4,37379.4
1242,38411.8
1241.6,37344.1
1241.2,38270.6
1240.8,37902.9
1240.4,37170.6
1240,37667.6
1239.6,37655.9
1239.2,37314.7
1238.8,37188.2
1238.4,36655.9
1238,36744.1
1237.6,36850
1237.2,36823.5
1236.8,36858.8
1236.4,37170.6
1236,37129.4
1235.6,36697.1
1235.2,36779.4
1234.8,37161.8
1234.4,36794.1
1234,37005.9
1233.6,37326.5
1233.2,37147.1
1232.8,37791.2
1232.4,37488.2
1232,37964.7
1231.6,37755.9
1231.2,37917.6
1230.8,38064.7
1230.4,38308.8
1230,38500
1229.6,38141.2
1229.2,38600
1228.8,38838.2
1228.4,38241.2
1228,38385.3
1227.6,38511.8
1227.2,38520.6
1226.8,38458.8
1226.4,38217.6
1226,38579.4
1225.6,37776.5
1225.2,38226.5
1224.8,37947.1
1224.4,38205.9
1224,37997.1
1223.6,37567.6
1223.2,38041.2
1222.8,37861.8
1222.4,37535.3
1222,37408.8
1221.6,37405.9
1221.2,37317.6
1220.8,37155.9
1220.4,37526.5
1220,36955.9
1219.6,36238.2
1219.2,36447.1
1218.8,36558.8
1218.4,35982.4
1218,35758.8
1217.6,35794.1
1217.2,35417.6
1216.8,36052.9
1216.4,35791.2
1216,35594.1
1215.6,34894.1
1215.2,34650
1214.8,34894.1
1214.4,34905.9
1214,35479.4
1213.6,34270.6
1213.2,34997.1
1212.8,35052.9
1212.4,34720.6
1212,34323.5
1211.6,35088.2
1211.2,34370.6
1210.8,34455.9
1210.4,34773.5
1210,34297.1
1209.6,34582.4
1209.2,34220.6
1208.8,34714.7
1208.4,34373.5
1208,33811.8
1207.6,34038.2
1207.2,33694.1
1206.8,34200
1206.4,33994.1
1206,34600
1205.6,33623.5
1205.2,33776.5
1204.8,33744.1
1204.4,34038.2
1204,33541.2
1203.6,33529.4
1203.2,34152.9
1202.8,32988.2
1202.4,33320.6
1202,33858.8
1201.6,34061.8
1201.2,34126.5
1200.8,33970.6
1200.4,34064.7
1200,34129.4
1199.6,34076.5
1199.2,34370.6
1198.8,33670.6
1198.4,34347.1
1198,34217.6
1197.6,33897.1
1197.2,33964.7
1196.8,34008.8
1196.4,34282.4
1196,34182.4
1195.6,34282.4
1195.2,34323.5
1194.8,33817.6
1194.4,33947.1
1194,34076.5
1193.6,34452.9
1193.2,34120.6
1192.8,33961.8
1192.4,33976.5
1192,33861.8
1191.6,34200
1191.2,34167.6
1190.8,34211.8
1190.4,33738.2
1190,34282.4
1189.6,33958.8
1189.2,34473.5
1188.8,33994.1
1188.4,34350
1188,34779.4
1187.6,34164.7
1187.2,34135.3
1186.8,34176.5
1186.4,34567.6
1186,34170.6
1185.6,34920.6
1185.2,34438.2
1184.8,34255.9
1184.4,34482.4
1184,34608.8
1183.6,34235.3
1183.2,34429.4
1182.8,34017.6
1182.4,34144.1
1182,34155.9
1181.6,34311.8
1181.2,33864.7
1180.8,34850
1180.4,34347.1
1180,34450
1179.6,33985.3
1179.2,34532.4
1178.8,34455.9
1178.4,34738.2
1178,34467.6
1177.6,34508.8
1177.2,34458.8
1176.8,34450
1176.4,34314.7
1176,34114.7
1175.6,33764.7
1175.2,34458.8
1174.8,34400
1174.4,34864.7
1174,34008.8
1173.6,34494.1
1173.2,34188.2
1172.8,34382.4
1172.4,34114.7
1172,34488.2
1171.6,34167.6
1171.2,35220.6
1170.8,34626.5
1170.4,34600
1170,34514.7
1169.6,34335.3
1169.2,34955.9
1168.8,34702.9
1168.4,34414.7
1168,34950
1167.6,34835.3
1167.2,35144.1
1166.8,34882.4
1166.4,34694.1
1166,34647.1
1165.6,34944.1
1165.2,34767.6
1164.8,35188.2
1164.4,34776.5
1164,35085.3
1163.6,34932.4
1163.2,35950
1162.8,35132.4
1162.4,35050
1162,35129.4
1161.6,35270.6
1161.2,35067.6
1160.8,34717.6
1160.4,34355.9
1160,34805.9
1159.6,35350
1159.2,34847.1
1158.8,34952.9
1158.4,34614.7
1158,35594.1
1157.6,34647.1
1157.2,34538.2
1156.8,35576.5
1156.4,34735.3
1156,35261.8
1155.6,35041.2
1155.2,34938.2
1154.8,34744.1
1154.4,34855.9
1154,34894.1
1153.6,35111.8
1153.2,34861.8
1152.8,34958.8
1152.4,35291.2
1152,34761.8
1151.6,35173.5
1151.2,35500
1150.8,35291.2
1150.4,35641.2
1150,35447.1
1149.6,35455.9
1149.2,35379.4
1148.8,35232.4
1148.4,35197.1
1148,35194.1
1147.6,35488.2
1147.2,35532.4
1146.8,35270.6
1146.4,35894.1
1146,34750
1145.6,36029.4
1145.2,35194.1
1144.8,35435.3
1144.4,34997.1
1144,35635.3
1143.6,35632.4
1143.2,35985.3
1142.8,35723.5
1142.4,35420.6
1142,35397.1
1141.6,35723.5
1141.2,35952.9
1140.8,35305.9
1140.4,35429.4
1140,34955.9
1139.6,35608.8
1139.2,35373.5
1138.8,35735.3
1138.4,35947.1
1138,35258.8
1137.6,35685.3
1137.2,36061.8
1136.8,36614.7
1136.4,35870.6
1136,35776.5
1135.6,36344.1
1135.2,36376.5
1134.8,36114.7
1134.4,36264.7
1134,37067.6
1133.6,36805.9
1133.2,36302.9
1132.8,36252.9
1132.4,36167.6
1132,36120.6
1131.6,36285.3
1131.2,36929.4
1130.8,36517.6
1130.4,36632.4
1130,35658.8
1129.6,36114.7
1129.2,35641.2
1128.8,36391.2
1128.4,36602.9
1128,35932.4
1127.6,36170.6
1127.2,36511.8
1126.8,36555.9
1126.4,36273.5
1126,35888.2
1125.6,35667.6
1125.2,36150
1124.8,35632.4
1124.4,36435.3
1124,35970.6
1123.6,35738.2
1123.2,35952.9
1122.8,36011.8
1122.4,35738.2
1122,36235.3
1121.6,36573.5
1121.2,36632.4
1120.8,36138.2
1120.4,36320.6
1120,36170.6
1119.6,36079.4
1119.2,35617.6
1118.8,36120.6
1118.4,35800
1118,36123.5
1117.6,35800
1117.2,36361.8
1116.8,36544.1
1116.4,35629.4
1116,36188.2
1115.6,36008.8
1115.2,36408.8
1114.8,36844.1
1114.4,36185.3
1114,36070.6
1113.6,37014.7
1113.2,36470.6
1112.8,36685.3
1112.4,37067.6
1112,36470.6
1111.6,36750
1111.2,36429.4
1110.8,36520.6
1110.4,37282.4
1110,36523.5
1109.6,36938.2
1109.2,36850
1108.8,37002.9
1108.4,36467.6
1108,36914.7
1107.6,36841.2
1107.2,36488.2
1106.8,36452.9
1106.4,36961.8
1106,36476.5
1105.6,36658.8
1105.2,36250
1104.8,36385.3
1104.4,36679.4
1104,36729.4
1103.6,36755.9
1103.2,37279.4
1102.8,36702.9
1102.4,36641.2
1102,36426.5
1101.6,36835.3
1101.2,36811.8
1100.8,36570.6
1100.4,36323.5
1100,36779.4
1099.6,36952.9
1099.2,37355.9
1098.8,37317.6
1098.4,37335.3
1098,37147.1
1097.6,36267.6
1097.2,37511.8
1096.8,37450
1096.4,37223.5
1096,37497.1
1095.6,37029.4
1095.2,37555.9
1094.8,37461.8
1094.4,37441.2
1094,37626.5
1093.6,37511.8
1093.2,36838.2
1092.8,37838.2
1092.4,36588.2
1092,37397.1
1091.6,37488.2
1091.2,37432.4
1090.8,37235.3
1090.4,37608.8
1090,37655.9
1089.6,37452.9
1089.2,37232.4
1088.8,37370.6
1088.4,37797.1
1088,37720.6
1087.6,37108.8
1087.2,37300
1086.8,37323.5
1086.4,37423.5
1086,37014.7
1085.6,37350
1085.2,36873.5
1084.8,36988.2
1084.4,37485.3
1084,37591.2
1083.6,37347.1
1083.2,37623.5
1082.8,37550
1082.4,37020.6
1082,37788.2
1081.6,37285.3
1081.2,36788.2
1080.8,37632.4
1080.4,37373.5
1080,37123.5
1079.6,37885.3
1079.2,37626.5
1078.8,37614.7
1078.4,37635.3
1078,37267.6
1077.6,37355.9
1077.2,37332.4
1076.8,37385.3
1076.4,37732.4
1076,37867.6
1075.6,37585.3
1075.2,37523.5
1074.8,37152.9
1074.4,38000
1074,37270.6
1073.6,38061.8
1073.2,37947.1
1072.8,38858.8
1072.4,40026.5
1072,40838.2
1071.6,42617.6
1071.2,43611.8
1070.8,42552.9
1070.4,41300
1070,39655.9
1069.6,38267.6
1069.2,38764.7
1068.8,38208.8
1068.4,37720.6
1068,37626.5
1067.6,38052.9
1067.2,38326.5
1066.8,37641.2
1066.4,37764.7
1066,37114.7
1065.6,37673.5
1065.2,37441.2
1064.8,37908.8
1064.4,37750
1064,38329.4
1063.6,37720.6
1063.2,37573.5
1062.8,38161.8
1062.4,37923.5
1062,37264.7
1061.6,38158.8
1061.2,38405.9
1060.8,38017.6
1060.4,38385.3
1060,37832.4
1059.6,38232.4
1059.2,38700
1058.8,38108.8
1058.4,38085.3
1058,38405.9
1057.6,38167.6
1057.2,38044.1
1056.8,38141.2
1056.4,38373.5
1056,38091.2
1055.6,38767.6
1055.2,38697.1
1054.8,37776.5
1054.4,38288.2
1054,38208.8
1053.6,38770.6
1053.2,38905.9
1052.8,38705.9
1052.4,39102.9
1052,38588.2
1051.6,38538.2
1051.2,38400
1050.8,38070.6
1050.4,38544.1
1050,39179.4
1049.6,38550
1049.2,38229.4
1048.8,39235.3
1048.4,39144.1
1048,39073.5
1047.6,38664.7
1047.2,38232.4
1046.8,38505.9
1046.4,38970.6
1046,38711.8
1045.6,39000
1045.2,39452.9
1044.8,39850
1044.4,39902.9
1044,39711.8
1043.6,40091.2
1043.2,39091.2
1042.8,39523.5
1042.4,39350
1042,39238.2
1041.6,39297.1
1041.2,39973.5
1040.8,38958.8
1040.4,39329.4
1040,38991.2
1039.6,39805.9
1039.2,39552.9
1038.8,38794.1
1038.4,39350
1038,39588.2
1037.6,39802.9
1037.2,39576.5
1036.8,39350
1036.4,39414.7
1036,39202.9
1035.6,39300
1035.2,40100
1034.8,39755.9
1034.4,39691.2
1034,39523.5
1033.6,39567.6
1033.2,39414.7
1032.8,39635.3
1032.4,39961.8
1032,39876.5
1031.6,39870.6
1031.2,39502.9
1030.8,39976.5
1030.4,39444.1
1030,40344.1
1029.6,39529.4
1029.2,39682.4
1028.8,39723.5
1028.4,39191.2
1028,39735.3
1027.6,39644.1
1027.2,39491.2
1026.8,39897.1
1026.4,39805.9
1026,40152.9
1025.6,39702.9
1025.2,39900
1024.8,39688.2
1024.4,40779.4
1024,40347.1
1023.6,40364.7
1023.2,41002.9
1022.8,40720.6
1022.4,41738.2
1022,41688.2
1021.6,42191.2
1021.2,41826.5
1020.8,41261.8
1020.4,40655.9
1020,40905.9
1019.6,40097.1
1019.2,40602.9
1018.8,40532.4
1018.4,40358.8
1018,40494.1
1017.6,40505.9
1017.2,41147.1
1016.8,41255.9
1016.4,41088.2
1016,41450
1015.6,40605.9
1015.2,41020.6
1014.8,40714.7
1014.4,40461.8
1014,41367.6
1013.6,40685.3
1013.2,40426.5
1012.8,41138.2
1012.4,40394.1
1012,39767.6
1011.6,40758.8
1011.2,40200
1010.8,41158.8
1010.4,40573.5
1010,40529.4
1009.6,40932.4
1009.2,41032.4
1008.8,41205.9
1008.4,40900
1008,41173.5
1007.6,40926.5
1007.2,41644.1
1006.8,41458.8
1006.4,41232.4
1006,40814.7
1005.6,41244.1
1005.2,41641.2
1004.8,41311.8
1004.4,41702.9
1004,42135.3
1003.6,41452.9
1003.2,41891.2
1002.8,42394.1
1002.4,42405.9
1002,41635.3
1001.6,41850
1001.2,41508.8
1000.8,42211.8
1000.4,42120.6
1000,41917.6
999.6,41920.6
999.2,41561.8
998.8,41697.1
998.4,42385.3
998,41520.6
997.6,42714.7
997.2,42035.3
996.8,42002.9
996.4,41470.6
996,41929.4
995.6,40982.4
995.2,41876.5
994.8,42450
994.4,41673.5
994,42126.5
993.6,42429.4
993.2,42591.2
992.8,42402.9
992.4,42132.4
992,42094.1
991.6,42305.9
991.2,42005.9
990.8,41758.8
990.4,42076.5
990,42132.4
989.6,42302.9
989.2,41858.8
988.8,41835.3
988.4,42358.8
988,41629.4
987.6,41844.1
987.2,41700
986.8,41967.6
986.4,41817.6
986,42247.1
985.6,42555.9
985.2,42611.8
984.8,42538.2
984.4,42576.5
984,42320.6
983.6,42838.2
983.2,42670.6
982.8,43041.2
982.4,43050
982,42388.2
981.6,43502.9
981.2,42638.2
980.8,43326.5
980.4,43132.4
980,43155.9
979.6,43355.9
979.2,43517.6
978.8,43632.4
978.4,43894.1
978,43900
977.6,43844.1
977.2,44191.2
976.8,43591.2
976.4,43811.8
976,44447.1
975.6,44117.6
975.2,44044.1
974.8,43988.2
974.4,44202.9
974,43314.7
973.6,43438.2
973.2,43823.5
972.8,43347.1
972.4,43667.6
972,44302.9
971.6,43570.6
971.2,43367.6
970.8,43326.5
970.4,43038.2
970,43426.5
969.6,43379.4
969.2,44052.9
968.8,43467.6
968.4,43300
968,42735.3
967.6,43255.9
967.2,42735.3
966.8,42817.6
966.4,42567.6
966,43361.8
965.6,43050
965.2,43029.4
964.8,43450
964.4,42152.9
964,42841.2
963.6,43058.8
963.2,42944.1
962.8,42982.4
962.4,43097.1
962,42788.2
961.6,43085.3
961.2,42226.5
960.8,43023.5
960.4,43355.9
960,43200
959.6,42794.1
959.2,42535.3
958.8,42997.1
958.4,42988.2
958,43450
957.6,43288.2
957.2,43185.3
956.8,43455.9
956.4,43158.8
956,43091.2
955.6,44041.2
955.2,43532.4
954.8,43358.8
954.4,44205.9
954,43952.9
953.6,43358.8
953.2,43376.5
952.8,43658.8
952.4,43352.9
952,43591.2
951.6,43897.1
951.2,44014.7
950.8,43976.5
950.4,44002.9
950,43200
949.6,44341.2
949.2,43500
948.8,44114.7
948.4,43861.8
948,44132.4
947.6,44705.9
947.2,43955.9
946.8,43502.9
946.4,44267.6
946,44108.8
945.6,44426.5
945.2,44247.1
944.8,43929.4
944.4,43938.2
944,44861.8
943.6,44923.5
943.2,44664.7
942.8,44185.3
942.4,44402.9
942,44526.5
941.6,45132.4
941.2,45300
940.8,45088.2
940.4,45120.6
940,44397.1
939.6,45217.6
939.2,44602.9
938.8,44820.6
938.4,45341.2
938,44838.2
937.6,44767.6
937.2,45014.7
936.8,44758.8
936.4,44611.8
936,44905.9
935.6,45088.2
935.2,44994.1
934.8,44794.1
934.4,45147.1
934,45741.2
933.6,45529.4
933.2,44608.8
932.8,45094.1
932.4,46011.8
932,45717.6
931.6,45188.2
931.2,45058.8
930.8,45273.5
930.4,45852.9
930,45052.9
929.6,45317.6
929.2,45667.6
928.8,45838.2
928.4,45888.2
928,45523.5
927.6,45538.2
927.2,44888.2
926.8,46102.9
926.4,45394.1
926,45988.2
925.6,45844.1
925.2,45464.7
924.8,45997.1
924.4,46235.3
924,45800
923.6,45767.6
923.2,46482.4
922.8,45991.2
922.4,46132.4
922,46079.4
921.6,46250
921.2,46732.4
920.8,45964.7
920.4,46026.5
920,46217.6
919.6,46829.4
919.2,46847.1
918.8,47041.2
918.4,46744.1
918,46791.2
917.6,46635.3
917.2,45785.3
916.8,46802.9
916.4,46741.2
916,46764.7
915.6,46485.3
915.2,46891.2
914.8,46358.8
914.4,45594.1
914,46994.1
913.6,46335.3
913.2,46679.4
912.8,46885.3
912.4,47294.1
912,46467.6
911.6,46844.1
911.2,47608.8
910.8,46691.2
910.4,47067.6
910,47052.9
909.6,46944.1
909.2,46479.4
908.8,47102.9
908.4,47547.1
908,47505.9
907.6,47873.5
907.2,47529.4
906.8,47573.5
906.4,48044.1
906,47517.6
905.6,47055.9
905.2,47129.4
904.8,47470.6
904.4,46967.6
904,46917.6
903.6,47479.4
903.2,46888.2
902.8,48061.8
902.4,47705.9
902,47900
901.6,47641.2
901.2,48173.5
900.8,47920.6
900.4,47947.1
900,48311.8
899.6,47294.1
899.2,47673.5
898.8,48052.9
898.4,48635.3
898,47905.9
897.6,48020.6
897.2,48482.4
896.8,48600
896.4,48388.2
896,48026.5
895.6,48400
895.2,48552.9
894.8,47844.1
894.4,48000
894,47782.4
893.6,48464.7
893.2,48885.3
892.8,48785.3
892.4,48361.8
892,48438.2
891.6,48229.4
891.2,49085.3
890.8,48741.2
890.4,48826.5
890,48605.9
889.6,48626.5
889.2,49244.1
888.8,48955.9
888.4,49008.8
888,48370.6
887.6,49770.6
887.2,48888.2
886.8,48823.5
886.4,48997.1
886,50126.5
885.6,49797.1
885.2,49132.4
884.8,49291.2
884.4,50244.1
884,48794.1
883.6,49291.2
883.2,49773.5
882.8,49597.1
882.4,49923.5
882,49732.4
881.6,50705.9
881.2,49164.7
880.8,50041.2
880.4,49967.6
880,49967.6
879.6,50176.5
879.2,50255.9
878.8,50708.8
878.4,50770.6
878,50397.1
877.6,50647.1
877.2,51291.2
876.8,51541.2
876.4,50370.6
876,50702.9
875.6,50479.4
875.2,50352.9
874.8,50608.8
874.4,50923.5
874,50467.6
873.6,50735.3
873.2,50385.3
872.8,51229.4
872.4,50973.5
872,50997.1
871.6,51220.6
871.2,50888.2
870.8,51123.5
870.4,51220.6
870,51141.2
869.6,51785.3
869.2,51100
868.8,50482.4
868.4,51167.6
868,51491.2
867.6,51129.4
867.2,51394.1
866.8,51850
866.4,51552.9
866,51738.2
865.6,51979.4
865.2,51961.8
864.8,52147.1
864.4,52661.8
864,52302.9
863.6,52135.3
863.2,51811.8
862.8,52402.9
862.4,52276.5
862,53179.4
861.6,53026.5
861.2,53308.8
860.8,53500
860.4,53029.4
860,53717.6
859.6,53320.6
859.2,53961.8
858.8,53182.4
858.4,53670.6
858,54288.2
857.6,53773.5
857.2,53382.4
856.8,53797.1
856.4,53461.8
856,52441.2
855.6,53338.2
855.2,53208.8
854.8,53155.9
854.4,54517.6
854,53755.9
853.6,53485.3
853.2,53320.6
852.8,53620.6
852.4,53926.5
852,53520.6
851.6,53967.6
851.2,53138.2
850.8,53455.9
850.4,52720.6
850,52982.4
849.6,53685.3
849.2,54052.9
848.8,53305.9
848.4,53350
848,53382.4
847.6,53117.6
847.2,53035.3
846.8,53661.8
846.4,53485.3
846,53432.4
845.6,53135.3
845.2,54432.4
844.8,52311.8
844.4,52852.9
844,53600
843.6,53694.1
843.2,53282.4
842.8,53732.4
842.4,53261.8
842,53632.4
841.6,53967.6
841.2,54238.2
840.8,54494.1
840.4,54014.7
840,55229.4
839.6,54344.1
839.2,54444.1
838.8,54052.9
838.4,54694.1
838,54723.5
837.6,56085.3
837.2,56591.2
836.8,56085.3
836.4,56782.4
836,57797.1
835.6,57941.2
835.2,57717.6
834.8,59111.8
834.4,59138.2
834,59305.9
833.6,60255.9
833.2,60247.1
832.8,60241.2
832.4,60102.9
832,59723.5
831.6,59955.9
831.2,59941.2
830.8,59176.5
830.4,60332.4
830,58991.2
829.6,58323.5
829.2,57485.3
828.8,57826.5
828.4,57935.3
828,57482.4
827.6,57205.9
827.2,56720.6
826.8,57523.5
826.4,56264.7
826,56091.2
825.6,56311.8
825.2,55367.6
824.8,55650
824.4,55738.2
824,55088.2
823.6,54958.8
823.2,54576.5
822.8,54776.5
822.4,53973.5
822,54170.6
821.6,54305.9
821.2,53735.3
820.8,54520.6
820.4,53776.5
820,54647.1
819.6,53838.2
819.2,53908.8
818.8,54208.8
818.4,53450
818,53441.2
817.6,54391.2
817.2,53844.1
816.8,53100
816.4,53291.2
816,54138.2
815.6,53720.6
815.2,53767.6
814.8,54355.9
814.4,53514.7
814,53535.3
813.6,53673.5
813.2,54158.8
812.8,54802.9
812.4,54523.5
812,54882.4
811.6,54576.5
811.2,54900
810.8,54041.2
810.4,54402.9
810,53629.4
809.6,54191.2
809.2,54794.1
808.8,54441.2
808.4,53952.9
808,54482.4
807.6,55044.1
807.2,54858.8
806.8,54805.9
806.4,54535.3
806,54570.6
805.6,54308.8
805.2,54858.8
804.8,54888.2
804.4,54961.8
804,54938.2
803.6,55473.5
803.2,55194.1
802.8,55185.3
802.4,54664.7
802,55361.8
801.6,54938.2
801.2,55123.5
800.8,54370.6
800.4,55394.1
800,55950
799.6,54502.9
799.2,55420.6
798.8,55408.8
798.4,55723.5
798,55811.8
797.6,56400
797.2,55711.8
796.8,56473.5
796.4,56179.4
796,54876.5
795.6,55652.9
795.2,55629.4
794.8,56108.8
794.4,56020.6
794,55661.8
793.6,56605.9
793.2,56794.1
792.8,56176.5
792.4,56452.9
792,56573.5
791.6,56126.5
791.2,55814.7
790.8,56447.1
790.4,56614.7
790,56650
789.6,56747.1
789.2,56679.4
788.8,55820.6
788.4,56694.1
788,57332.4
787.6,56411.8
787.2,56717.6
786.8,57155.9
786.4,56285.3
786,56641.2
785.6,56858.8
785.2,57141.2
784.8,57064.7
784.4,56541.2
784,56591.2
783.6,56970.6
783.2,56670.6
782.8,57038.2
782.4,57870.6
782,57676.5
781.6,56876.5
781.2,58197.1
780.8,57014.7
780.4,57423.5
780,57155.9
779.6,57791.2
779.2,57850
778.8,57500
778.4,57752.9
778,56779.4
777.6,57158.8
777.2,57458.8
776.8,58073.5
776.4,57476.5
776,57591.2
775.6,58555.9
775.2,58100
774.8,57802.9
774.4,57720.6
774,57423.5
773.6,57797.1
773.2,57626.5
772.8,58182.4
772.4,57670.6
772,57367.6
771.6,58488.2
771.2,58882.4
770.8,57747.1
770.4,58585.3
770,57867.6
769.6,57691.2
769.2,58700
768.8,57479.4
768.4,58185.3
768,58994.1
767.6,58614.7
767.2,58508.8
766.8,59652.9
766.4,59900
766,60255.9
765.6,59917.6
765.2,59758.8
764.8,60247.1
764.4,60835.3
764,60676.5
763.6,61005.9
763.2,60617.6
762.8,61397.1
762.4,61770.6
762,61197.1
761.6,61011.8
761.2,60800
760.8,60929.4
760.4,60417.6
760,60673.5
759.6,60850
759.2,60917.6
758.8,60338.2
758.4,61320.6
758,60461.8
757.6,59258.8
757.2,59814.7
756.8,59264.7
756.4,59379.4
756,59597.1
755.6,60135.3
755.2,59829.4
754.8,59238.2
754.4,59182.4
754,59491.2
753.6,59041.2
753.2,58652.9
752.8,58832.4
752.4,58655.9
752,58855.9
751.6,59235.3
751.2,58602.9
750.8,59538.2
750.4,59094.1
750,59435.3
749.6,59255.9
749.2,58770.6
748.8,59494.1
748.4,59208.8
748,59344.1
747.6,59270.6
747.2,59273.5
746.8,59302.9
746.4,58305.9
746,58997.1
745.6,59408.8
745.2,59838.2
744.8,58473.5
744.4,59002.9
744,58532.4
743.6,59341.2
743.2,59291.2
742.8,59291.2
742.4,59094.1
742,59573.5
741.6,59067.6
741.2,59191.2
740.8,61082.4
740.4,60188.2
740,59382.4
739.6,59467.6
739.2,59338.2
738.8,59685.3
738.4,59717.6
738,60394.1
737.6,59829.4
737.2,59611.8
736.8,59800
736.4,60564.7
736,59844.1
735.6,60291.2
735.2,60476.5
734.8,60500
734.4,60408.8
734,60450
733.6,59511.8
733.2,60608.8
732.8,61382.4
732.4,60735.3
732,60064.7
731.6,61297.1
731.2,60179.4
730.8,60797.1
730.4,61123.5
730,60491.2
729.6,61167.6
729.2,60591.2
728.8,60067.6
728.4,60644.1
728,60882.4
727.6,60288.2
727.2,60847.1
726.8,61502.9
726.4,61038.2
726,60979.4
725.6,62194.1
725.2,60723.5
724.8,61482.4
724.4,61270.6
724,61288.2
723.6,60941.2
723.2,61982.4
722.8,61173.5
722.4,62355.9
722,62350
721.6,61976.5
721.2,62232.4
720.8,62141.2
720.4,62717.6
720,63008.8
719.6,63197.1
719.2,62767.6
718.8,63361.8
718.4,63688.2
718,63655.9
717.6,63347.1
717.2,63750
716.8,63379.4
716.4,63888.2
716,63861.8
715.6,62938.2
715.2,63455.9
714.8,63817.6
714.4,63050
714,62782.4
713.6,63100
713.2,63320.6
712.8,63547.1
712.4,62897.1
712,63244.1
711.6,63208.8
711.2,63908.8
710.8,63611.8
710.4,63752.9
710,63917.6
709.6,63820.6
709.2,62650
708.8,63791.2
708.4,63797.1
708,62917.6
707.6,63723.5
707.2,62752.9
706.8,63485.3
706.4,63208.8
706,63591.2
705.6,63920.6
705.2,63255.9
704.8,62938.2
704.4,63817.6
704,62797.1
703.6,62764.7
703.2,62894.1
702.8,63829.4
702.4,62773.5
702,62791.2
701.6,63405.9
701.2,63352.9
700.8,63455.9
700.4,63691.2
700,63129.4
699.6,62661.8
699.2,64147.1
698.8,63252.9
698.4,63005.9
698,62776.5
697.6,63261.8
697.2,62711.8
696.8,62491.2
696.4,61850
696,62020.6
695.6,61941.2
695.2,62652.9
694.8,63167.6
694.4,61944.1
694,62894.1
693.6,62691.2
693.2,61979.4
692.8,63605.9
692.4,64485.3
692,63229.4
691.6,64132.4
691.2,63982.4
690.8,65558.8
690.4,65970.6
690,69561.8
689.6,73497.1
689.2,80788.2
688.8,91447.1
688.4,102582
688,111509
687.6,113221
687.2,108744
686.8,96250
686.4,86155.9
686,75611.8
685.6,70491.2
685.2,66694.1
684.8,65435.3
684.4,65050
684,64852.9
683.6,64720.6
683.2,63785.3
682.8,63970.6
682.4,63585.3
682,63761.8
681.6,63350
681.2,63111.8
680.8,63644.1
680.4,63123.5
680,63205.9
679.6,63011.8
679.2,64285.3
678.8,63738.2
678.4,62741.2
678,64105.9
677.6,63497.1
677.2,63567.6
676.8,63852.9
676.4,63814.7
676,63205.9
675.6,63041.2
675.2,64317.6
674.8,63791.2
674.4,63661.8
674,64117.6
673.6,64129.4
673.2,63588.2
672.8,64576.5
672.4,64358.8
672,63967.6
671.6,63279.4
671.2,64205.9
670.8,64411.8
670.4,64223.5
670,64626.5
669.6,64791.2
669.2,64535.3
668.8,64441.2
668.4,64508.8
668,65129.4
667.6,64738.2
667.2,64629.4
666.8,64885.3
666.4,65814.7
666,64082.4
665.6,64564.7
665.2,64279.4
664.8,65267.6
664.4,65320.6
664,65011.8
663.6,64973.5
663.2,65111.8
662.8,65320.6
662.4,64532.4
662,64861.8
661.6,65123.5
661.2,64941.2
660.8,65161.8
660.4,64664.7
660,64547.1
659.6,65473.5
659.2,66226.5
658.8,65320.6
658.4,65655.9
658,65144.1
657.6,65452.9
657.2,65252.9
656.8,65405.9
656.4,65326.5
656,65173.5
655.6,65800
655.2,65023.5
654.8,64811.8
654.4,64852.9
654,65311.8
653.6,65141.2
653.2,65576.5
652.8,64944.1
652.4,66197.1
652,65614.7
651.6,65514.7
651.2,65920.6
650.8,65629.4
650.4,66879.4
650,66664.7
649.6,66244.1
649.2,65832.4
648.8,66517.6
648.4,66494.1
648,66752.9
647.6,67402.9
647.2,68376.5
646.8,67802.9
646.4,67202.9
646,68247.1
645.6,68138.2
645.2,68308.8
644.8,69161.8
644.4,69547.1
644,70658.8
643.6,69523.5
643.2,70694.1
642.8,70267.6
642.4,70550
642,70832.4
641.6,70226.5
641.2,69158.8
640.8,69785.3
640.4,68626.5
640,69055.9
639.6,68914.7
639.2,68332.4
638.8,67682.4
638.4,68520.6
638,66914.7
637.6,67485.3
637.2,67247.1
636.8,67029.4
636.4,66520.6
636,66191.2
635.6,66594.1
635.2,66576.5
634.8,65647.1
634.4,66014.7
634,65876.5
633.6,65964.7
633.2,65117.6
632.8,66061.8
632.4,66520.6
632,65517.6
631.6,66185.3
631.2,65952.9
630.8,65785.3
630.4,66032.4
630,66308.8
629.6,66023.5
629.2,65847.1
628.8,65700
628.4,66405.9
628,66200
627.6,66344.1
627.2,66679.4
626.8,66132.4
626.4,65667.6
626,66608.8
625.6,66479.4
625.2,66129.4
624.8,66726.5
624.4,67402.9
624,66570.6
623.6,66279.4
623.2,66744.1
622.8,67064.7
622.4,65897.1
622,66920.6
621.6,66382.4
621.2,66638.2
620.8,66561.8
620.4,66738.2
620,66300
619.6,66747.1
619.2,66394.1
618.8,67202.9
618.4,67055.9
618,66552.9
617.6,66897.1
617.2,67161.8
616.8,67067.6
616.4,67458.8
616,67464.7
615.6,68105.9
615.2,67588.2
614.8,66967.6
614.4,67788.2
614,67879.4
613.6,67638.2
613.2,66732.4
612.8,67388.2
612.4,68147.1
612,67320.6
611.6,67558.8
611.2,67117.6
610.8,67697.1
610.4,67591.2
610,67455.9
609.6,67650
609.2,67800
608.8,68255.9
608.4,67705.9
608,68529.4
607.6,68773.5
607.2,68211.8
606.8,69582.4
606.4,68517.6
606,68835.3
605.6,68691.2
605.2,69067.6
604.8,69417.6
604.4,69402.9
604,70197.1
603.6,69570.6
603.2,69076.5
602.8,70405.9
602.4,69735.3
602,69738.2
601.6,69717.6
601.2,69573.5
600.8,68667.6
600.4,69302.9
600,69491.2
599.6,69605.9
599.2,69623.5
598.8,69494.1
598.4,69508.8
598,69685.3
597.6,69288.2
597.2,69352.9
596.8,69661.8
596.4,69644.1
596,69397.1
595.6,69455.9
595.2,70220.6
594.8,70267.6
594.4,69891.2
594,69467.6
593.6,69194.1
593.2,70929.4
592.8,69644.1
592.4,69723.5
592,69397.1
591.6,69632.4
591.2,70408.8
590.8,70264.7
590.4,69976.5
590,70464.7
589.6,70664.7
589.2,70194.1
588.8,70052.9
588.4,70511.8
588,70876.5
587.6,70655.9
587.2,70941.2
586.8,71091.2
586.4,71247.1
586,70676.5
585.6,71500
585.2,71555.9
584.8,71876.5
584.4,71500
584,71370.6
583.6,72067.6
583.2,71314.7
582.8,71547.1
582.4,71050
582,71182.4
581.6,72055.9
581.2,71614.7
580.8,72373.5
580.4,72700
580,72047.1
579.6,72108.8
579.2,72497.1
578.8,71052.9
578.4,72394.1
578,72461.8
577.6,71873.5
577.2,71879.4
576.8,72855.9
576.4,72350
576,72776.5
575.6,73250
575.2,73220.6
574.8,74629.4
574.4,73911.8
574,73870.6
573.6,74176.5
573.2,74852.9
572.8,74588.2
572.4,75182.4
572,73779.4
571.6,73985.3
571.2,74550
570.8,73844.1
570.4,73652.9
570,73958.8
569.6,73144.1
569.2,73705.9
568.8,72876.5
568.4,73994.1
568,72705.9
567.6,72726.5
567.2,72617.6
566.8,73388.2
566.4,73161.8
566,73647.1
565.6,73226.5
565.2,72626.5
564.8,72450
564.4,72558.8
564,73382.4
563.6,73464.7
563.2,73394.1
562.8,72017.6
562.4,72885.3
562,72982.4
561.6,72823.5
561.2,72426.5
560.8,72776.5
560.4,72208.8
560,71167.6
559.6,72394.1
559.2,71488.2
558.8,72705.9
558.4,72055.9
558,72314.7
557.6,72564.7
557.2,71994.1
556.8,72138.2
556.4,71747.1
556,72550
555.6,73167.6
555.2,73261.8
554.8,72376.5
554.4,72867.6
554,72588.2
553.6,73005.9
553.2,73417.6
552.8,73876.5
552.4,73652.9
552,74197.1
551.6,74294.1
551.2,75655.9
550.8,76447.1
550.4,76820.6
550,78208.8
549.6,79885.3
549.2,81102.9
548.8,83173.5
548.4,84605.9
548,86441.2
547.6,89261.8
547.2,90297.1
546.8,90658.8
546.4,91482.4
546,90514.7
545.6,90923.5
545.2,88494.1
544.8,86850
544.4,84120.6
544,80555.9
543.6,79126.5
543.2,77497.1
542.8,75614.7
542.4,72991.2
542,72276.5
541.6,72023.5
541.2,70438.2
540.8,69732.4
540.4,69388.2
540,68152.9
539.6,68014.7
539.2,68185.3
538.8,67276.5
538.4,68061.8
538,66850
537.6,66244.1
537.2,66305.9
536.8,66897.1
536.4,66770.6
536,66588.2
535.6,67605.9
535.2,67088.2
534.8,68391.2
534.4,69255.9
534,71714.7
533.6,72285.3
533.2,74370.6
532.8,76626.5
532.4,79461.8
532,80700
531.6,80185.3
531.2,78355.9
530.8,74411.8
530.4,70758.8
530,68023.5
529.6,65426.5
529.2,65450
528.8,65547.1
528.4,64864.7
528,64294.1
527.6,64614.7
527.2,64447.1
526.8,64341.2
526.4,63908.8
526,65247.1
525.6,64261.8
525.2,64826.5
524.8,64620.6
524.4,64641.2
524,64573.5
523.6,63408.8
523.2,64488.2
522.8,64776.5
522.4,64544.1
522,65279.4
521.6,64514.7
521.2,65176.5
520.8,64605.9
520.4,64070.6
520,65252.9
519.6,64767.6
519.2,64958.8
518.8,64355.9
518.4,64447.1
518,65038.2
517.6,65529.4
517.2,64276.5
516.8,65608.8
516.4,64870.6
516,65644.1
515.6,64802.9
515.2,65717.6
514.8,64302.9
514.4,65035.3
514,65400
513.6,65255.9
513.2,65567.6
512.8,64982.4
512.4,65329.4
512,65535.3
511.6,65570.6
511.2,64955.9
510.8,65535.3
510.4,65208.8
510,65400
509.6,66391.2
509.2,66247.1
508.8,65882.4
508.4,66908.8
508,66320.6
507.6,66870.6
507.2,65876.5
506.8,66341.2
506.4,66102.9
506,65685.3
505.6,66352.9
505.2,66167.6
504.8,66461.8
504.4,66029.4
504,66844.1
503.6,66776.5
503.2,66555.9
502.8,66544.1
502.4,66914.7
502,67517.6
501.6,67105.9
501.2,67111.8
500.8,67226.5
500.4,67614.7
500,66902.9
499.6,67279.4
499.2,68355.9
498.8,68064.7
498.4,68850
498,69379.4
497.6,70864.7
497.2,70276.5
496.8,70652.9
496.4,69941.2
496,68991.2
495.6,67588.2
495.2,67300
494.8,67991.2
494.4,66964.7
494,67244.1
493.6,66973.5
493.2,67047.1
492.8,67126.5
492.4,66891.2
492,66802.9
491.6,67782.4
491.2,67541.2
490.8,68202.9
490.4,66958.8
490,66964.7
489.6,66420.6
489.2,67967.6
488.8,67567.6
488.4,67535.3
488,67138.2
487.6,67714.7
487.2,67841.2
486.8,67397.1
486.4,66461.8
486,67226.5
485.6,67632.4
485.2,67497.1
484.8,68252.9
484.4,69011.8
484,67964.7
483.6,68582.4
483.2,68644.1
482.8,68455.9
482.4,67402.9
482,68641.2
481.6,67279.4
481.2,68711.8
480.8,67850
480.4,69400
480,69052.9
479.6,68691.2
479.2,69038.2
478.8,67929.4
478.4,68244.1
478,69088.2
477.6,68920.6
477.2,69182.4
476.8,69370.6
476.4,68702.9
476,69514.7
475.6,68932.4
475.2,69164.7
474.8,69185.3
474.4,69832.4
474,70697.1
473.6,68488.2
473.2,68979.4
472.8,69014.7
472.4,69250
472,69544.1
471.6,69779.4
471.2,69823.5
470.8,69470.6
470.4,69764.7
470,69350
469.6,69497.1
469.2,70967.6
468.8,69808.8
468.4,69844.1
468,70338.2
467.6,69723.5
467.2,69605.9
466.8,70150
466.4,70047.1
466,70685.3
465.6,70120.6
465.2,71108.8
464.8,71297.1
464.4,71005.9
464,71194.1
463.6,71000
463.2,71138.2
462.8,70800
462.4,70529.4
462,71070.6
461.6,71379.4
461.2,71855.9
460.8,71917.6
460.4,71091.2
460,72264.7
459.6,71694.1
459.2,71397.1
458.8,71955.9
458.4,71700
458,71547.1
457.6,71002.9
457.2,72405.9
456.8,72232.4
456.4,72514.7
456,71967.6
455.6,72258.8
455.2,72282.4
454.8,72370.6
454.4,72073.5
454,72461.8
453.6,73073.5
453.2,72367.6
452.8,72411.8
452.4,72294.1
452,72617.6
451.6,72705.9
451.2,73155.9
450.8,72950
450.4,73211.8
450,73094.1
449.6,73435.3
449.2,72323.5
448.8,73200
448.4,73485.3
448,72729.4
447.6,73305.9
447.2,73473.5
446.8,73317.6
446.4,73064.7
446,74055.9
445.6,73270.6
445.2,74411.8
444.8,73644.1
444.4,73708.8
444,73885.3
443.6,73697.1
443.2,73688.2
442.8,74350
442.4,74317.6
442,74650
441.6,74070.6
441.2,73755.9
440.8,73864.7
440.4,74817.6
440,74011.8
439.6,74138.2
439.2,74608.8
438.8,75129.4
438.4,75538.2
438,74514.7
437.6,74879.4
437.2,73576.5
436.8,75497.1
436.4,74808.8
436,75529.4
435.6,75397.1
435.2,75094.1
434.8,75170.6
434.4,76279.4
434,76005.9
433.6,76158.8
433.2,74870.6
432.8,76497.1
432.4,76111.8
432,75500
431.6,75323.5
431.2,75358.8
430.8,75544.1
430.4,75579.4
430,75626.5
429.6,75658.8
429.2,76352.9
428.8,75929.4
428.4,76261.8
428,77047.1
427.6,76261.8
427.2,76997.1
426.8,76679.4
426.4,76794.1
426,76567.6
425.6,76494.1
425.2,76985.3
424.8,77594.1
424.4,77402.9
424,77917.6
423.6,78176.5
423.2,78041.2
422.8,77297.1
422.4,76982.4
422,77567.6
421.6,76855.9
421.2,78423.5
420.8,78702.9
420.4,76926.5
420,78700
419.6,78391.2
419.2,78152.9
418.8,78379.4
418.4,78667.6
418,78673.5
417.6,78288.2
417.2,77300
416.8,78379.4
416.4,78879.4
416,78247.1
415.6,77826.5
415.2,77738.2
414.8,78735.3
414.4,78970.6
414,79438.2
413.6,78752.9
413.2,78829.4
412.8,79402.9
412.4,78814.7
412,79302.9
411.6,78870.6
411.2,79338.2
410.8,79447.1
410.4,79200
410,79814.7
409.6,80100
409.2,80247.1
408.8,79929.4
408.4,81308.8
408,80576.5
407.6,80773.5
407.2,80067.6
406.8,80673.5
406.4,80752.9
406,79332.4
405.6,80100
405.2,81370.6
404.8,80473.5
404.4,80064.7
404,80008.8
403.6,80605.9
403.2,80523.5
402.8,80908.8
402.4,81085.3
402,82373.5
401.6,82252.9
401.2,81026.5
400.8,81705.9
400.4,81764.7
400,83232.4
399.6,83288.2
399.2,83435.3
398.8,82464.7
398.4,82467.6
398,81967.6
397.6,81541.2
397.2,82108.8
396.8,81361.8
396.4,82197.1
396,82402.9
395.6,81900
395.2,82011.8
394.8,81447.1
394.4,82020.6
394,81976.5
393.6,82397.1
393.2,82988.2
392.8,82229.4
392.4,83261.8
392,83802.9
391.6,83064.7
391.2,83097.1
390.8,83058.8
390.4,83273.5
390,84011.8
389.6,82985.3
389.2,83452.9
388.8,83023.5
388.4,82850
388,83847.1
387.6,83011.8
387.2,83976.5
386.8,83420.6
386.4,83288.2
386,84547.1
385.6,82955.9
385.2,84217.6
384.8,84761.8
384.4,84050
384,84582.4
383.6,84935.3
383.2,85041.2
382.8,84429.4
382.4,84111.8
382,84494.1
381.6,85411.8
381.2,84670.6
380.8,84676.5
380.4,84394.1
380,85123.5
379.6,85997.1
379.2,85894.1
378.8,85591.2
378.4,85264.7
378,84935.3
377.6,85582.4
377.2,85547.1
376.8,85526.5
376.4,85708.8
376,85329.4
375.6,86632.4
375.2,86202.9
374.8,86158.8
374.4,88114.7
374,89479.4
373.6,90470.6
373.2,89144.1
372.8,87279.4
372.4,85267.6
372,85150
371.6,85097.1
371.2,84773.5
370.8,84723.5
370.4,85520.6
370,85073.5
369.6,85247.1
369.2,84702.9
368.8,85288.2
368.4,87847.1
368,90885.3
367.6,92029.4
367.2,89558.8
366.8,86494.1
366.4,84214.7
366,83708.8
365.6,83773.5
365.2,83220.6
364.8,83150
364.4,83802.9
364,83776.5
363.6,83200
363.2,83894.1
362.8,82897.1
362.4,82997.1
362,84273.5
361.6,84105.9
361.2,84000
360.8,84417.6
360.4,84926.5
360,84664.7
359.6,85773.5
359.2,85635.3
358.8,86364.7
358.4,87735.3
358,88450
357.6,90435.3
357.2,91191.2
356.8,93570.6
356.4,94944.1
356,98529.4
355.6,101997
355.2,105071
354.8,110347
354.4,112594
354,117488
353.6,119541
353.2,122332
352.8,120432
352.4,116985
352,112400
351.6,106226
351.2,101121
350.8,95702.9
350.4,90920.6
350,87950
349.6,84608.8
349.2,80470.6
348.8,78391.2
348.4,76720.6
348,75550
347.6,73191.2
347.2,72926.5
346.8,70926.5
346.4,70314.7
346,69235.3
345.6,69308.8
345.2,68541.2
344.8,66908.8
344.4,67167.6
344,66573.5
343.6,66108.8
343.2,66850
342.8,65785.3
342.4,67411.8
342,66779.4
341.6,67408.8
341.2,68750
340.8,69885.3
340.4,70523.5
340,71729.4
339.6,74161.8
339.2,76197.1
338.8,80061.8
338.4,83191.2
338,87873.5
337.6,92579.4
337.2,98976.5
336.8,106824
336.4,115024
336,121782
335.6,126371
335.2,130229
334.8,128232
334.4,122462
334,115159
333.6,106082
333.2,95526.5
332.8,87411.8
332.4,81450
332,75047.1
331.6,69823.5
331.2,66197.1
330.8,62258.8
330.4,59370.6
330,57770.6
329.6,55838.2
329.2,54370.6
328.8,52661.8
328.4,51011.8
328,50782.4
327.6,49779.4
327.2,49505.9
326.8,47835.3
326.4,47900
326,47120.6
325.6,46347.1
325.2,46567.6
324.8,46185.3
324.4,45570.6
324,45867.6
323.6,44985.3
323.2,45250
322.8,45079.4
322.4,45329.4
322,44773.5
321.6,44405.9
321.2,44435.3
320.8,44291.2
320.4,43658.8
320,44591.2
319.6,44270.6
319.2,44426.5
318.8,44023.5
318.4,44229.4
318,43629.4
317.6,44682.4
317.2,43697.1
316.8,44129.4
316.4,43894.1
316,43473.5
315.6,44238.2
315.2,43629.4
314.8,43688.2
314.4,43382.4
314,44076.5
313.6,43520.6
313.2,43735.3
312.8,43535.3
312.4,43611.8
312,43791.2
311.6,43394.1
311.2,43788.2
310.8,43552.9
310.4,44170.6
310,43579.4
309.6,43708.8
309.2,43811.8
308.8,43738.2
308.4,44088.2
308,44258.8
307.6,43920.6
307.2,44314.7
306.8,42888.2
306.4,44047.1
306,43547.1
305.6,43294.1
305.2,43667.6
304.8,43688.2
304.4,43676.5
304,43900
303.6,43585.3
303.2,43444.1
302.8,42641.2
302.4,43311.8
302,43258.8
301.6,42761.8
301.2,43405.9
300.8,43161.8
300.4,42982.4
300,42811.8
299.6,42808.8
299.2,42188.2
298.8,42108.8
298.4,42323.5
298,42232.4
297.6,42164.7
297.2,42202.9
296.8,42217.6
296.4,41738.2
296,42620.6
295.6,41997.1
295.2,42473.5
294.8,41944.1
294.4,42226.5
294,43047.1
293.6,43455.9
293.2,44061.8
292.8,43767.6
292.4,43682.4
292,44252.9
291.6,45226.5
291.2,45679.4
290.8,47579.4
290.4,47552.9
290,47600
289.6,46341.2
289.2,46700
288.8,46667.6
288.4,48632.4
288,48744.1
287.6,50535.3
287.2,53376.5
286.8,56350
286.4,59429.4
286,63514.7
285.6,68470.6
285.2,71094.1
284.8,71158.8
284.4,66735.3
284,58747.1
283.6,50179.4
283.2,44994.1
282.8,43511.8
282.4,42702.9
282,42341.2
281.6,42794.1
281.2,41714.7
280.8,41400
280.4,41458.8
280,41494.1
279.6,41773.5
279.2,41094.1
278.8,41576.5
278.4,41350
278,41605.9
277.6,41717.6
277.2,42058.8
276.8,41047.1
276.4,41202.9
276,41917.6
275.6,41735.3
275.2,41558.8
274.8,41185.3
274.4,41335.3
274,41064.7
273.6,41779.4
273.2,41770.6
272.8,41547.1
272.4,41879.4
272,41982.4
271.6,41802.9
271.2,42070.6
270.8,42105.9
270.4,41479.4
270,41867.6
269.6,42076.5
269.2,41835.3
268.8,42441.2
268.4,42917.6
268,42329.4
267.6,42558.8
267.2,42082.4
266.8,42005.9
266.4,41732.4
266,42370.6
265.6,42250
265.2,41729.4
264.8,42085.3
264.4,41717.6
264,43076.5
263.6,42785.3
263.2,42655.9
262.8,41626.5
262.4,42820.6
262,42250
261.6,42752.9
261.2,42935.3
260.8,42167.6
260.4,42182.4
260,42958.8
259.6,42811.8
259.2,43426.5
258.8,43038.2
258.4,42688.2
258,42314.7
257.6,42652.9
257.2,42441.2
256.8,42897.1
256.4,42608.8
256,42323.5
255.6,42723.5
255.2,42985.3
254.8,43429.4
254.4,43982.4
254,42873.5
253.6,43394.1
253.2,43738.2
252.8,43088.2
252.4,42935.3
252,43117.6
251.6,43267.6
251.2,43438.2
250.8,43547.1
250.4,43861.8
250,44011.8
249.6,43617.6
249.2,43555.9
248.8,43905.9
248.4,43423.5
248,43650
247.6,44008.8
247.2,43950
246.8,43370.6
246.4,43620.6
246,43238.2
245.6,43700
245.2,44085.3
244.8,44117.6
244.4,43564.7
244,44120.6
243.6,44591.2
243.2,43682.4
242.8,43873.5
242.4,43744.1
242,44367.6
241.6,44238.2
241.2,44079.4
240.8,43985.3
240.4,44767.6
240,43132.4
239.6,43673.5
239.2,43747.1
238.8,44470.6
238.4,44185.3
238,44823.5
237.6,44282.4
237.2,44455.9
236.8,44576.5
236.4,44455.9
236,44779.4
235.6,44961.8
235.2,44797.1
234.8,45144.1
234.4,45005.9
234,44914.7
233.6,45508.8
233.2,45285.3
232.8,44797.1
232.4,45497.1
232,46052.9
231.6,45352.9
231.2,45644.1
230.8,45876.5
230.4,45694.1
230,45176.5
229.6,45623.5
229.2,45467.6
228.8,46202.9
228.4,45738.2
228,46061.8
227.6,46641.2
227.2,46576.5
226.8,45855.9
226.4,46882.4
226,47111.8
225.6,47050
225.2,46200
224.8,46758.8
224.4,46414.7
224,46123.5
223.6,45479.4
223.2,45864.7
222.8,46055.9
222.4,45591.2
222,46517.6
221.6,45900
221.2,45026.5
220.8,46088.2
220.4,46044.1
220,46238.2
219.6,45941.2
219.2,45917.6
218.8,46197.1
218.4,45735.3
218,46202.9
217.6,46376.5
217.2,46305.9
216.8,46055.9
216.4,46779.4
216,46711.8
215.6,46488.2
215.2,46223.5
214.8,46600
214.4,45785.3
214,46450
213.6,46682.4
213.2,46335.3
212.8,46000
212.4,46602.9
212,46688.2
211.6,46970.6
211.2,47820.6
210.8,46655.9
210.4,46705.9
210,47020.6
209.6,47620.6
209.2,46873.5
208.8,46379.4
208.4,47314.7
208,47161.8
207.6,46735.3
207.2,46632.4
206.8,46335.3
206.4,46494.1
206,47523.5
205.6,47288.2
205.2,47191.2
204.8,47438.2
204.4,47667.6
204,47555.9
203.6,47544.1
203.2,46873.5
202.8,47761.8
202.4,47876.5
202,48252.9
201.6,47944.1
201.2,47788.2
200.8,47794.1
200.4,47414.7
200,47826.5
199.6,48235.3
199.2,48635.3
198.8,48232.4
198.4,48435.3
198,48126.5
197.6,48855.9
197.2,48955.9
196.8,48935.3
196.4,48329.4
196,48370.6
195.6,48138.2
195.2,48114.7
194.8,48050
194.4,48602.9
194,48779.4
193.6,48902.9
193.2,48588.2
192.8,49352.9
192.4,48726.5
192,48417.6
191.6,48082.4
191.2,47852.9
190.8,49350
190.4,48811.8
190,48855.9
189.6,48920.6
189.2,49326.5
188.8,48588.2
188.4,48873.5
188,49217.6
187.6,49208.8
187.2,49138.2
186.8,49820.6
186.4,48964.7
186,49450
185.6,49385.3
185.2,49858.8
184.8,49588.2
184.4,49438.2
184,49661.8
183.6,49582.4
183.2,50002.9
182.8,49982.4
182.4,50282.4
182,50000
181.6,49697.1
181.2,50535.3
180.8,49447.1
180.4,50064.7
180,50308.8
179.6,50147.1
179.2,49711.8
178.8,50782.4
178.4,50008.8
178,50517.6
177.6,51217.6
177.2,51394.1
176.8,50314.7
176.4,50750
176,50452.9
175.6,50982.4
175.2,51038.2
174.8,50541.2
174.4,50382.4
174,51373.5
173.6,50182.4
173.2,50567.6
172.8,51144.1
172.4,51552.9
172,50902.9
171.6,51270.6
171.2,51044.1
170.8,51379.4
170.4,51755.9
170,52105.9
169.6,51570.6
169.2,51850
168.8,52508.8
168.4,52955.9
168,52373.5
167.6,51511.8
167.2,51755.9
166.8,51423.5
166.4,51673.5
166,51097.1
165.6,51402.9
165.2,52158.8
164.8,51835.3
164.4,52161.8
164,52994.1
163.6,52050
163.2,52941.2
162.8,53126.5
162.4,53911.8
162,54123.5
161.6,53955.9
161.2,53752.9
160.8,53285.3
160.4,52800
160,51802.9
159.6,52467.6
159.2,51914.7
158.8,53067.6
158.4,51888.2
158,51838.2
157.6,52402.9
157.2,52538.2
156.8,52294.1
156.4,52938.2
156,52088.2
155.6,52973.5
155.2,52623.5
154.8,52888.2
154.4,52791.2
154,53314.7
153.6,53150
153.2,52905.9
152.8,52779.4
152.4,53564.7
152,53202.9
151.6,52820.6
151.2,53452.9
150.8,53261.8
150.4,53588.2
150,53802.9
149.6,53720.6
149.2,54164.7
148.8,54038.2
148.4,53426.5
148,53550
147.6,53967.6
147.2,54132.4
146.8,54491.2
146.4,53885.3
146,53500
145.6,54011.8
145.2,54373.5
144.8,53805.9
144.4,53800
144,53455.9
143.6,54070.6
143.2,53997.1
142.8,54458.8
142.4,54147.1
142,54120.6
141.6,54638.2
141.2,54964.7
140.8,54758.8
140.4,54473.5
140,55058.8
139.6,54747.1
139.2,54070.6
138.8,54691.2
138.4,54952.9
138,54073.5
137.6,54291.2
137.2,55217.6
136.8,54829.4
136.4,54867.6
136,55432.4
135.6,54900
135.2,55088.2
134.8,55791.2
134.4,55779.4
134,55694.1
133.6,55108.8
133.2,55514.7
132.8,55488.2
132.4,56044.1
132,56223.5
131.6,55564.7
131.2,55655.9
130.8,56232.4
130.4,55132.4
130,55726.5
129.6,55850
129.2,56482.4
128.8,56188.2
128.4,56055.9
128,56300
127.6,55414.7
127.2,55926.5
126.8,56585.3
126.4,56550
126,55655.9
125.6,56005.9
125.2,56641.2
124.8,56338.2
124.4,56117.6
124,56126.5
123.6,57002.9
123.2,56352.9
122.8,57061.8
122.4,57461.8
122,57352.9
121.6,58338.2
121.2,57691.2
120.8,57967.6
120.4,58611.8
120,58317.6
119.6,58832.4
119.2,58011.8
118.8,58447.1
118.4,58208.8
118,59450
117.6,59164.7
117.2,59185.3
116.8,58797.1
116.4,60241.2
116,60320.6
115.6,60035.3
115.2,60052.9
114.8,60473.5
114.4,60576.5
114,60852.9
113.6,60782.4
113.2,61964.7
112.8,62467.6
112.4,61394.1
112,61894.1
111.6,61911.8
111.2,62820.6
110.8,63341.2
110.4,63544.1
110,62794.1
109.6,62823.5
109.2,62082.4
108.8,61817.6
108.4,61347.1
108,60788.2
107.6,60905.9
107.2,60041.2
106.8,60117.6
106.4,59047.1
106,57602.9
105.6,58305.9
105.2,57491.2
104.8,56426.5
104.4,55835.3
104,55226.5
103.6,54764.7
103.2,55200
102.8,54514.7
102.4,54594.1
102,54311.8
101.6,53505.9
101.2,52405.9
100.8,53147.1
100.4,51676.5
100,51602.9
99.6,49820.6
99.2,49950
98.8,49511.8
98.4,47747.1
98,48194.1
97.6,47517.6
97.2,45750
96.8,44982.4
96.4,44197.1
96,43326.5
95.6,42647.1
95.2,43082.4
94.8,42026.5
94.4,42938.2
94,42717.6
93.6,41873.5
93.2,42311.8
92.8,42323.5
92.4,41355.9
92,42011.8
91.6,43308.8
91.2,44411.8
90.8,46661.8
90.4,49626.5
90,53252.9
89.6,59614.7
89.2,73708.8
88.8,99779.4
88.4,150335
88,217088
87.6,248418
87.2,198862
86.8,121259
86.4,77155.9
86,66673.5
85.6,75817.6
85.2,102321
84.8,157118
84.4,244474
84,296424
83.6,247135
83.2,140897
82.8,64479.4
82.4,37117.6
82,28161.8
81.6,24679.4
81.2,20952.9
80.8,19576.5
80.4,18105.9
80,17070.6
79.6,15629.4
79.2,14611.8
78.8,14097.1
78.4,13891.2
78,13494.1
77.6,13282.4
77.2,12855.9
76.8,13188.2
76.4,13217.6
76,13079.4
75.6,12964.7
75.2,13467.6
74.8,13402.9
74.4,13382.4
74,13300
73.6,13126.5
73.2,12858.8
72.8,12702.9
72.4,12502.9
72,12294.1
71.6,11608.8
71.2,11655.9
70.8,11111.8
70.4,10588.2
70,10576.5
69.6,10570.6
69.2,10152.9
68.8,9955.88
68.4,9914.71
68,9870.59
67.6,9897.06
67.2,9691.18
66.8,9294.12
66.4,9570.59
66,9208.82
65.6,9617.65
65.2,9432.35
64.8,9994.12
64.4,10023.5
64,10447.1
63.6,10711.8
63.2,10632.4
62.8,10635.3
62.4,10514.7
62,10573.5
61.6,11079.4
61.2,11044.1
60.8,11688.2
60.4,12297.1
60,12700
59.6,12773.5
59.2,13661.8
58.8,14250
58.4,14970.6
58,15226.5
57.6,15608.8
57.2,15917.6
56.8,15323.5
56.4,15388.2
56,14552.9
55.6,13914.7
55.2,13088.2
54.8,11858.8
54.4,11864.7
54,10652.9
53.6,10461.8
53.2,9808.82
52.8,9635.29
52.4,8879.41
52,8664.71
51.6,8423.53
51.2,8323.53
50.8,7747.06
50.4,7797.06
50,7670.59
49.6,7502.94
49.2,7335.29
48.8,7379.41
48.4,7170.59
48,6732.35
47.6,6944.12
47.2,6952.94
46.8,6823.53
46.4,6941.18
46,6250
45.6,6511.76
45.2,6538.24
44.8,6579.41
44.4,6667.65
44,6323.53
43.6,6361.76
43.2,6414.71
42.8,6094.12
42.4,6305.88
42,6305.88
41.6,6473.53
41.2,6320.59
40.8,6632.35
40.4,6311.76
40,6629.41
39.6,6876.47
39.2,6711.76
38.8,6588.24
38.4,6511.76
38,6829.41
37.6,6341.18
37.2,6900
36.8,6776.47
36.4,6908.82
36,6923.53
35.6,7202.94
35.2,7191.18
34.8,7508.82
34.4,7420.59
34,8047.06
33.6,7826.47
33.2,7755.88
32.8,7464.71
32.4,8229.41
32,7655.88
31.6,7694.12
31.2,7444.12
30.8,7417.65
30.4,7597.06
30,7426.47
29.6,7414.71
29.2,7176.47
28.8,6873.53
28.4,7017.65
28,6961.76
27.6,7070.59
27.2,7023.53
26.8,6802.94
26.4,6617.65
26,6729.41
25.6,6579.41
25.2,6402.94
24.8,6532.35
24.4,6373.53
24,6441.18
23.6,6061.76
23.2,6267.65
22.8,5970.59
22.4,5923.53
22,6085.29
21.6,5932.35
21.2,5911.76
20.8,5873.53
20.4,5941.18
20,5708.82
19.6,5797.06
19.2,5652.94
18.8,5797.06
18.4,5538.24
18,5688.24
17.6,5473.53
17.2,5388.24
16.8,5102.94
16.4,5244.12
16,5208.82
15.6,5050
15.2,4967.65
14.8,4941.18
14.4,4791.18
14,4861.76
13.6,4652.94
13.2,4823.53
12.8,4464.71
12.4,4500
12,4741.18
11.6,4852.94
11.2,4847.06
10.8,5067.65
10.4,5261.76
10,5379.41
9.6,5911.76
9.2,6352.94
8.8,7173.53
8.4,8541.18
8,10888.2
7.6,14082.4
7.2,17252.9
6.8,19991.2
6.4,21923.5
6,21620.6
5.6,20208.8
5.2,19152.9
4.8,19473.5
4.4,21464.7
4,23326.5
3.6,23011.8
3.2,22611.8
2.8,20541.2
2.4,16652.9
2,11891.2
1.6,7320.59
1.2,5047.06
0.8,3691.18
0.4,2932.35
-2.27374E-13,1982.35
-0.4,1291.18
