,,
,,
Characteristic Energy eV,1486.6,Acquisition Time s
BE_Sur1 1,CPS_Sur1 1,Background_Sur1 1
1398.2,11838.2,11838.2
1397.8,11976.5,11976.5
1397.4,11797.1,11797.1
1397,11952.9,11952.9
1396.6,11829.4,11829.4
1396.2,11570.6,11570.6
1395.8,11785.3,11785.3
1395.4,11964.7,11964.7
1395,11894.1,11894.1
1394.6,11667.6,11667.6
1394.2,11897.1,11897.1
1393.8,11552.9,11552.9
1393.4,11638.2,11638.2
1393,11582.4,11582.4
1392.6,11729.4,11729.4
1392.2,11779.4,11779.4
1391.8,11505.9,11505.9
1391.4,11685.3,11685.3
1391,11552.9,11552.9
1390.6,11408.8,11408.8
1390.2,11344.1,11344.1
1389.8,11561.8,11561.8
1389.4,11273.5,11273.5
1389,11605.9,11605.9
1388.6,11273.5,11273.5
1388.2,11702.9,11702.9
1387.8,11411.8,11411.8
1387.4,11505.9,11505.9
1387,11488.2,11488.2
1386.6,11426.5,11426.5
1386.2,11294.1,11294.1
1385.8,11500,11500
1385.4,11567.6,11567.6
1385,11302.9,11302.9
1384.6,11461.8,11461.8
1384.2,11008.8,11008.8
1383.8,11102.9,11102.9
1383.4,11717.6,11717.6
1383,11208.8,11208.8
1382.6,11338.2,11338.2
1382.2,11347.1,11347.1
1381.8,11317.6,11317.6
1381.4,10923.5,10923.5
1381,11285.3,11285.3
1380.6,11135.3,11135.3
1380.2,11376.5,11376.5
1379.8,11017.6,11017.6
1379.4,11194.1,11194.1
1379,11605.9,11605.9
1378.6,11220.6,11220.6
1378.2,11117.6,11117.6
1377.8,11314.7,11314.7
1377.4,11238.2,11238.2
1377,10923.5,10923.5
1376.6,11526.5,11526.5
1376.2,11320.6,11320.6
1375.8,11335.3,11335.3
1375.4,11141.2,11141.2
1375,11014.7,11014.7
1374.6,11108.8,11108.8
1374.2,11105.9,11105.9
1373.8,10941.2,10941.2
1373.4,10841.2,10841.2
1373,11279.4,11279.4
1372.6,10864.7,10864.7
1372.2,11094.1,11094.1
1371.8,10788.2,10788.2
1371.4,11000,11000
1371,11308.8,11308.8
1370.6,11094.1,11094.1
1370.2,10917.6,10917.6
1369.8,10902.9,10902.9
1369.4,11079.4,11079.4
1369,11200,11200
1368.6,10850,10850
1368.2,10932.4,10932.4
1367.8,10885.3,10885.3
1367.4,10991.2,10991.2
1367,11197.1,11197.1
1366.6,11238.2,11238.2
1366.2,10944.1,10944.1
1365.8,11029.4,11029.4
1365.4,10894.1,10894.1
1365,11120.6,11120.6
1364.6,10950,10950
1364.2,10776.5,10776.5
1363.8,11070.6,11070.6
1363.4,10694.1,10694.1
1363,10970.6,10970.6
1362.6,11123.5,11123.5
1362.2,10720.6,10720.6
1361.8,10776.5,10776.5
1361.4,10964.7,10964.7
1361,10670.6,10670.6
1360.6,10867.6,10867.6
1360.2,10832.4,10832.4
1359.8,11223.5,11223.5
1359.4,11026.5,11026.5
1359,10900,10900
1358.6,10802.9,10802.9
1358.2,11100,11100
1357.8,11094.1,11094.1
1357.4,10852.9,10852.9
1357,11014.7,11014.7
1356.6,11111.8,11111.8
1356.2,11226.5,11226.5
1355.8,10797.1,10797.1
1355.4,11552.9,11552.9
1355,10964.7,10964.7
1354.6,10891.2,10891.2
1354.2,10958.8,10958.8
1353.8,10835.3,10835.3
1353.4,10673.5,10673.5
1353,10938.2,10938.2
1352.6,10602.9,10602.9
1352.2,10708.8,10708.8
1351.8,11088.2,11088.2
1351.4,10752.9,10752.9
1351,10829.4,10829.4
1350.6,10988.2,10988.2
1350.2,10994.1,10994.1
1349.8,11041.2,11041.2
1349.4,10800,10800
1349,10676.5,10676.5
1348.6,10838.2,10838.2
1348.2,11050,11050
1347.8,11114.7,11114.7
1347.4,11173.5,11173.5
1347,11058.8,11058.8
1346.6,10497.1,10497.1
1346.2,11038.2,11038.2
1345.8,10900,10900
1345.4,11105.9,11105.9
1345,10717.6,10717.6
1344.6,10397.1,10397.1
1344.2,10908.8,10908.8
1343.8,11035.3,11035.3
1343.4,11120.6,11120.6
1343,10982.4,10982.4
1342.6,10655.9,10655.9
1342.2,11038.2,11038.2
1341.8,11050,11050
1341.4,10858.8,10858.8
1341,10767.6,10767.6
1340.6,10747.1,10747.1
1340.2,10794.1,10794.1
1339.8,10932.4,10932.4
1339.4,10958.8,10958.8
1339,10797.1,10797.1
1338.6,10802.9,10802.9
1338.2,10920.6,10920.6
1337.8,10776.5,10776.5
1337.4,10961.8,10961.8
1337,10891.2,10891.2
1336.6,10635.3,10635.3
1336.2,10752.9,10752.9
1335.8,10691.2,10691.2
1335.4,10511.8,10511.8
1335,10167.6,10167.6
1334.6,10467.6,10467.6
1334.2,10502.9,10502.9
1333.8,10241.2,10241.2
1333.4,10464.7,10464.7
1333,10308.8,10308.8
1332.6,10591.2,10591.2
1332.2,10305.9,10305.9
1331.8,10297.1,10297.1
1331.4,10741.2,10741.2
1331,10302.9,10302.9
1330.6,10544.1,10544.1
1330.2,10567.6,10567.6
1329.8,10197.1,10197.1
1329.4,10388.2,10388.2
1329,10802.9,10802.9
1328.6,10602.9,10602.9
1328.2,10441.2,10441.2
1327.8,10294.1,10294.1
1327.4,10258.8,10258.8
1327,10773.5,10773.5
1326.6,9997.06,9997.06
1326.2,10088.2,10088.2
1325.8,10485.3,10485.3
1325.4,10361.8,10361.8
1325,10538.2,10538.2
1324.6,10126.5,10126.5
1324.2,10076.5,10076.5
1323.8,10144.1,10144.1
1323.4,10247.1,10247.1
1323,10232.4,10232.4
1322.6,10073.5,10073.5
1322.2,10338.2,10338.2
1321.8,10132.4,10132.4
1321.4,10479.4,10479.4
1321,10567.6,10567.6
1320.6,10302.9,10302.9
1320.2,10341.2,10341.2
1319.8,10670.6,10670.6
1319.4,10279.4,10279.4
1319,10355.9,10355.9
1318.6,10161.8,10161.8
1318.2,10023.5,10023.5
1317.8,10220.6,10220.6
1317.4,10302.9,10302.9
1317,10444.1,10444.1
1316.6,10220.6,10220.6
1316.2,10570.6,10570.6
1315.8,9920.59,9920.59
1315.4,10547.1,10547.1
1315,10526.5,10526.5
1314.6,10502.9,10502.9
1314.2,9991.18,9991.18
1313.8,10300,10300
1313.4,10455.9,10455.9
1313,10576.5,10576.5
1312.6,10617.6,10617.6
1312.2,10317.6,10317.6
1311.8,10629.4,10629.4
1311.4,10402.9,10402.9
1311,10647.1,10647.1
1310.6,10764.7,10764.7
1310.2,10335.3,10335.3
1309.8,10426.5,10426.5
1309.4,10400,10400
1309,10420.6,10420.6
1308.6,10497.1,10497.1
1308.2,10247.1,10247.1
1307.8,10388.2,10388.2
1307.4,10502.9,10502.9
1307,10455.9,10455.9
1306.6,10658.8,10658.8
1306.2,10332.4,10332.4
1305.8,10738.2,10738.2
1305.4,10367.6,10367.6
1305,10605.9,10605.9
1304.6,10258.8,10258.8
1304.2,10673.5,10673.5
1303.8,10305.9,10305.9
1303.4,10676.5,10676.5
1303,10758.8,10758.8
1302.6,10494.1,10494.1
1302.2,10361.8,10361.8
1301.8,10450,10450
1301.4,10467.6,10467.6
1301,11008.8,11008.8
1300.6,10558.8,10558.8
1300.2,10505.9,10505.9
1299.8,10752.9,10752.9
1299.4,10650,10650
1299,10432.4,10432.4
1298.6,10694.1,10694.1
1298.2,10911.8,10911.8
1297.8,10750,10750
1297.4,10900,10900
1297,10800,10800
1296.6,10620.6,10620.6
1296.2,10376.5,10376.5
1295.8,10655.9,10655.9
1295.4,10944.1,10944.1
1295,10535.3,10535.3
1294.6,10876.5,10876.5
1294.2,10788.2,10788.2
1293.8,10761.8,10761.8
1293.4,10682.4,10682.4
1293,10805.9,10805.9
1292.6,10617.6,10617.6
1292.2,10682.4,10682.4
1291.8,10723.5,10723.5
1291.4,10885.3,10885.3
1291,10832.4,10832.4
1290.6,11188.2,11188.2
1290.2,11276.5,11276.5
1289.8,10752.9,10752.9
1289.4,10879.4,10879.4
1289,10761.8,10761.8
1288.6,10897.1,10897.1
1288.2,10935.3,10935.3
1287.8,11138.2,11138.2
1287.4,10764.7,10764.7
1287,11141.2,11141.2
1286.6,11335.3,11335.3
1286.2,10988.2,10988.2
1285.8,10926.5,10926.5
1285.4,11023.5,11023.5
1285,10982.4,10982.4
1284.6,10952.9,10952.9
1284.2,10544.1,10544.1
1283.8,11111.8,11111.8
1283.4,10876.5,10876.5
1283,11035.3,11035.3
1282.6,10970.6,10970.6
1282.2,10755.9,10755.9
1281.8,11108.8,11108.8
1281.4,11026.5,11026.5
1281,10902.9,10902.9
1280.6,10782.4,10782.4
1280.2,11061.8,11061.8
1279.8,11141.2,11141.2
1279.4,10852.9,10852.9
1279,11188.2,11188.2
1278.6,10908.8,10908.8
1278.2,10864.7,10864.7
1277.8,11370.6,11370.6
1277.4,11414.7,11414.7
1277,11358.8,11358.8
1276.6,11064.7,11064.7
1276.2,10979.4,10979.4
1275.8,11217.6,11217.6
1275.4,10958.8,10958.8
1275,10985.3,10985.3
1274.6,11055.9,11055.9
1274.2,11202.9,11202.9
1273.8,11094.1,11094.1
1273.4,11541.2,11541.2
1273,11302.9,11302.9
1272.6,11041.2,11041.2
1272.2,11147.1,11147.1
1271.8,10979.4,10979.4
1271.4,11505.9,11505.9
1271,11494.1,11494.1
1270.6,10929.4,10929.4
1270.2,11279.4,11279.4
1269.8,11358.8,11358.8
1269.4,11314.7,11314.7
1269,11264.7,11264.7
1268.6,11464.7,11464.7
1268.2,11314.7,11314.7
1267.8,11497.1,11497.1
1267.4,11414.7,11414.7
1267,11552.9,11552.9
1266.6,11535.3,11535.3
1266.2,11314.7,11314.7
1265.8,11808.8,11808.8
1265.4,11508.8,11508.8
1265,11400,11400
1264.6,11170.6,11170.6
1264.2,11529.4,11529.4
1263.8,11367.6,11367.6
1263.4,11385.3,11385.3
1263,11552.9,11552.9
1262.6,11520.6,11520.6
1262.2,11226.5,11226.5
1261.8,11752.9,11752.9
1261.4,11435.3,11435.3
1261,11573.5,11573.5
1260.6,11841.2,11841.2
1260.2,11829.4,11829.4
1259.8,11535.3,11535.3
1259.4,12226.5,12226.5
1259,11432.4,11432.4
1258.6,11541.2,11541.2
1258.2,11667.6,11667.6
1257.8,11294.1,11294.1
1257.4,11820.6,11820.6
1257,11661.8,11661.8
1256.6,11700,11700
1256.2,11576.5,11576.5
1255.8,11382.4,11382.4
1255.4,11500,11500
1255,11985.3,11985.3
1254.6,11611.8,11611.8
1254.2,11770.6,11770.6
1253.8,11920.6,11920.6
1253.4,11891.2,11891.2
1253,12241.2,12241.2
1252.6,12085.3,12085.3
1252.2,12094.1,12094.1
1251.8,11658.8,11658.8
1251.4,11832.4,11832.4
1251,11844.1,11844.1
1250.6,11558.8,11558.8
1250.2,11576.5,11576.5
1249.8,11888.2,11888.2
1249.4,12241.2,12241.2
1249,11920.6,11920.6
1248.6,12297.1,12297.1
1248.2,12011.8,12011.8
1247.8,11947.1,11947.1
1247.4,12008.8,12008.8
1247,12370.6,12370.6
1246.6,12311.8,12311.8
1246.2,12179.4,12179.4
1245.8,12220.6,12220.6
1245.4,12111.8,12111.8
1245,12385.3,12385.3
1244.6,12126.5,12126.5
1244.2,12061.8,12061.8
1243.8,12494.1,12494.1
1243.4,12023.5,12023.5
1243,12147.1,12147.1
1242.6,12300,12300
1242.2,12302.9,12302.9
1241.8,12279.4,12279.4
1241.4,12523.5,12523.5
1241,12417.6,12417.6
1240.6,12329.4,12329.4
1240.2,12194.1,12194.1
1239.8,12452.9,12452.9
1239.4,12688.2,12688.2
1239,12488.2,12488.2
1238.6,12658.8,12658.8
1238.2,12391.2,12391.2
1237.8,12500,12500
1237.4,12476.5,12476.5
1237,12223.5,12223.5
1236.6,12014.7,12014.7
1236.2,12791.2,12791.2
1235.8,12355.9,12355.9
1235.4,12552.9,12552.9
1235,12641.2,12641.2
1234.6,12114.7,12114.7
1234.2,12408.8,12408.8
1233.8,12491.2,12491.2
1233.4,12617.6,12617.6
1233,12908.8,12908.8
1232.6,12914.7,12914.7
1232.2,12682.4,12682.4
1231.8,12970.6,12970.6
1231.4,12802.9,12802.9
1231,12911.8,12911.8
1230.6,12976.5,12976.5
1230.2,13100,13100
1229.8,13029.4,13029.4
1229.4,12726.5,12726.5
1229,13411.8,13411.8
1228.6,13391.2,13391.2
1228.2,13217.6,13217.6
1227.8,13255.9,13255.9
1227.4,13179.4,13179.4
1227,13447.1,13447.1
1226.6,13405.9,13405.9
1226.2,13200,13200
1225.8,13188.2,13188.2
1225.4,13302.9,13302.9
1225,13017.6,13017.6
1224.6,13197.1,13197.1
1224.2,13279.4,13279.4
1223.8,13314.7,13314.7
1223.4,13291.2,13291.2
1223,12847.1,12847.1
1222.6,12964.7,12964.7
1222.2,12950,12950
1221.8,13147.1,13147.1
1221.4,12752.9,12752.9
1221,12935.3,12935.3
1220.6,13141.2,13141.2
1220.2,12576.5,12576.5
1219.8,12908.8,12908.8
1219.4,12902.9,12902.9
1219,12882.4,12882.4
1218.6,12641.2,12641.2
1218.2,12861.8,12861.8
1217.8,12635.3,12635.3
1217.4,12508.8,12508.8
1217,12270.6,12270.6
1216.6,12208.8,12208.8
1216.2,12202.9,12202.9
1215.8,12082.4,12082.4
1215.4,11985.3,11985.3
1215,11920.6,11920.6
1214.6,11644.1,11644.1
1214.2,11550,11550
1213.8,11726.5,11726.5
1213.4,11497.1,11497.1
1213,11776.5,11776.5
1212.6,11711.8,11711.8
1212.2,11841.2,11841.2
1211.8,11314.7,11314.7
1211.4,11600,11600
1211,11550,11550
1210.6,11429.4,11429.4
1210.2,11467.6,11467.6
1209.8,11717.6,11717.6
1209.4,11752.9,11752.9
1209,11750,11750
1208.6,11932.4,11932.4
1208.2,11667.6,11667.6
1207.8,11508.8,11508.8
1207.4,11567.6,11567.6
1207,11347.1,11347.1
1206.6,11773.5,11773.5
1206.2,11191.2,11191.2
1205.8,11826.5,11826.5
1205.4,11435.3,11435.3
1205,11829.4,11829.4
1204.6,11520.6,11520.6
1204.2,11626.5,11626.5
1203.8,11547.1,11547.1
1203.4,11811.8,11811.8
1203,11802.9,11802.9
1202.6,11752.9,11752.9
1202.2,11961.8,11961.8
1201.8,11847.1,11847.1
1201.4,11876.5,11876.5
1201,11782.4,11782.4
1200.6,11514.7,11514.7
1200.2,11605.9,11605.9
1199.8,11629.4,11629.4
1199.4,11738.2,11738.2
1199,11450,11450
1198.6,11708.8,11708.8
1198.2,11752.9,11752.9
1197.8,11873.5,11873.5
1197.4,11438.2,11438.2
1197,11573.5,11573.5
1196.6,11750,11750
1196.2,11764.7,11764.7
1195.8,11782.4,11782.4
1195.4,11791.2,11791.2
1195,11491.2,11491.2
1194.6,11847.1,11847.1
1194.2,11967.6,11967.6
1193.8,11802.9,11802.9
1193.4,11788.2,11788.2
1193,11655.9,11655.9
1192.6,11979.4,11979.4
1192.2,11602.9,11602.9
1191.8,11847.1,11847.1
1191.4,11958.8,11958.8
1191,11897.1,11897.1
1190.6,11879.4,11879.4
1190.2,12105.9,12105.9
1189.8,11785.3,11785.3
1189.4,12258.8,12258.8
1189,12032.4,12032.4
1188.6,12005.9,12005.9
1188.2,12085.3,12085.3
1187.8,11555.9,11555.9
1187.4,12405.9,12405.9
1187,12370.6,12370.6
1186.6,11950,11950
1186.2,12491.2,12491.2
1185.8,12002.9,12002.9
1185.4,11900,11900
1185,11879.4,11879.4
1184.6,12052.9,12052.9
1184.2,12005.9,12005.9
1183.8,12105.9,12105.9
1183.4,11897.1,11897.1
1183,12029.4,12029.4
1182.6,12411.8,12411.8
1182.2,12423.5,12423.5
1181.8,12517.6,12517.6
1181.4,12452.9,12452.9
1181,12188.2,12188.2
1180.6,11988.2,11988.2
1180.2,12055.9,12055.9
1179.8,12402.9,12402.9
1179.4,12252.9,12252.9
1179,12317.6,12317.6
1178.6,12208.8,12208.8
1178.2,12214.7,12214.7
1177.8,12600,12600
1177.4,12323.5,12323.5
1177,12188.2,12188.2
1176.6,12191.2,12191.2
1176.2,12250,12250
1175.8,12608.8,12608.8
1175.4,12408.8,12408.8
1175,12661.8,12661.8
1174.6,12426.5,12426.5
1174.2,12697.1,12697.1
1173.8,12379.4,12379.4
1173.4,12541.2,12541.2
1173,12323.5,12323.5
1172.6,11935.3,11935.3
1172.2,12529.4,12529.4
1171.8,12226.5,12226.5
1171.4,12570.6,12570.6
1171,12485.3,12485.3
1170.6,12523.5,12523.5
1170.2,12708.8,12708.8
1169.8,12526.5,12526.5
1169.4,12591.2,12591.2
1169,12976.5,12976.5
1168.6,12682.4,12682.4
1168.2,12655.9,12655.9
1167.8,12429.4,12429.4
1167.4,12658.8,12658.8
1167,12623.5,12623.5
1166.6,12876.5,12876.5
1166.2,12947.1,12947.1
1165.8,12876.5,12876.5
1165.4,12723.5,12723.5
1165,12791.2,12791.2
1164.6,13135.3,13135.3
1164.2,12832.4,12832.4
1163.8,12873.5,12873.5
1163.4,13105.9,13105.9
1163,12714.7,12714.7
1162.6,12847.1,12847.1
1162.2,12520.6,12520.6
1161.8,12961.8,12961.8
1161.4,12870.6,12870.6
1161,12829.4,12829.4
1160.6,12873.5,12873.5
1160.2,12864.7,12864.7
1159.8,13423.5,13423.5
1159.4,13273.5,13273.5
1159,13067.6,13067.6
1158.6,12950,12950
1158.2,13332.4,13332.4
1157.8,13220.6,13220.6
1157.4,13147.1,13147.1
1157,13150,13150
1156.6,13232.4,13232.4
1156.2,12947.1,12947.1
1155.8,13102.9,13102.9
1155.4,13029.4,13029.4
1155,13405.9,13405.9
1154.6,13191.2,13191.2
1154.2,13167.6,13167.6
1153.8,13261.8,13261.8
1153.4,13150,13150
1153,13379.4,13379.4
1152.6,13217.6,13217.6
1152.2,13341.2,13341.2
1151.8,13055.9,13055.9
1151.4,13288.2,13288.2
1151,12888.2,12888.2
1150.6,13629.4,13629.4
1150.2,13341.2,13341.2
1149.8,13144.1,13144.1
1149.4,13044.1,13044.1
1149,13311.8,13311.8
1148.6,13247.1,13247.1
1148.2,13241.2,13241.2
1147.8,13258.8,13258.8
1147.4,13305.9,13305.9
1147,13120.6,13120.6
1146.6,13426.5,13426.5
1146.2,13317.6,13317.6
1145.8,13502.9,13502.9
1145.4,13497.1,13497.1
1145,13150,13150
1144.6,13432.4,13432.4
1144.2,13161.8,13161.8
1143.8,13276.5,13276.5
1143.4,13408.8,13408.8
1143,13450,13450
1142.6,13494.1,13494.1
1142.2,13632.4,13632.4
1141.8,13682.4,13682.4
1141.4,13208.8,13208.8
1141,13441.2,13441.2
1140.6,13308.8,13308.8
1140.2,13482.4,13482.4
1139.8,13411.8,13411.8
1139.4,13623.5,13623.5
1139,13658.8,13658.8
1138.6,13538.2,13538.2
1138.2,13411.8,13411.8
1137.8,13570.6,13570.6
1137.4,13667.6,13667.6
1137,13388.2,13388.2
1136.6,13752.9,13752.9
1136.2,13691.2,13691.2
1135.8,13808.8,13808.8
1135.4,13579.4,13579.4
1135,13532.4,13532.4
1134.6,13661.8,13661.8
1134.2,13908.8,13908.8
1133.8,13547.1,13547.1
1133.4,13994.1,13994.1
1133,14117.6,14117.6
1132.6,13823.5,13823.5
1132.2,13894.1,13894.1
1131.8,13900,13900
1131.4,14047.1,14047.1
1131,13902.9,13902.9
1130.6,14129.4,14129.4
1130.2,13905.9,13905.9
1129.8,13655.9,13655.9
1129.4,13841.2,13841.2
1129,13817.6,13817.6
1128.6,13850,13850
1128.2,14088.2,14088.2
1127.8,13914.7,13914.7
1127.4,13991.2,13991.2
1127,14150,14150
1126.6,14400,14400
1126.2,14064.7,14064.7
1125.8,14373.5,14373.5
1125.4,14085.3,14085.3
1125,14329.4,14329.4
1124.6,14229.4,14229.4
1124.2,14223.5,14223.5
1123.8,13847.1,13847.1
1123.4,13926.5,13926.5
1123,14129.4,14129.4
1122.6,14220.6,14220.6
1122.2,14085.3,14085.3
1121.8,13976.5,13976.5
1121.4,14205.9,14205.9
1121,14205.9,14205.9
1120.6,14073.5,14073.5
1120.2,14167.6,14167.6
1119.8,14264.7,14264.7
1119.4,14267.6,14267.6
1119,14111.8,14111.8
1118.6,14582.4,14582.4
1118.2,14391.2,14391.2
1117.8,13944.1,13944.1
1117.4,14476.5,14476.5
1117,14350,14350
1116.6,14376.5,14376.5
1116.2,14376.5,14376.5
1115.8,14079.4,14079.4
1115.4,14258.8,14258.8
1115,13920.6,13920.6
1114.6,14667.6,14667.6
1114.2,14111.8,14111.8
1113.8,14344.1,14344.1
1113.4,14564.7,14564.7
1113,14585.3,14585.3
1112.6,14379.4,14379.4
1112.2,14802.9,14802.9
1111.8,14144.1,14144.1
1111.4,14135.3,14135.3
1111,14764.7,14764.7
1110.6,14679.4,14679.4
1110.2,14558.8,14558.8
1109.8,14679.4,14679.4
1109.4,15035.3,15035.3
1109,14688.2,14688.2
1108.6,14547.1,14547.1
1108.2,14800,14800
1107.8,14767.6,14767.6
1107.4,14900,14900
1107,15202.9,15202.9
1106.6,14800,14800
1106.2,14655.9,14655.9
1105.8,14691.2,14691.2
1105.4,14500,14500
1105,14870.6,14870.6
1104.6,14888.2,14888.2
1104.2,14670.6,14670.6
1103.8,14750,14750
1103.4,14629.4,14629.4
1103,14532.4,14532.4
1102.6,14535.3,14535.3
1102.2,14567.6,14567.6
1101.8,14702.9,14702.9
1101.4,14529.4,14529.4
1101,14473.5,14473.5
1100.6,14538.2,14538.2
1100.2,14764.7,14764.7
1099.8,14800,14800
1099.4,14211.8,14211.8
1099,14947.1,14947.1
1098.6,14029.4,14029.4
1098.2,14761.8,14761.8
1097.8,14544.1,14544.1
1097.4,14550,14550
1097,14214.7,14214.7
1096.6,14614.7,14614.7
1096.2,14094.1,14094.1
1095.8,13967.6,13967.6
1095.4,14191.2,14191.2
1095,14438.2,14438.2
1094.6,14467.6,14467.6
1094.2,14494.1,14494.1
1093.8,14711.8,14711.8
1093.4,14214.7,14214.7
1093,14488.2,14488.2
1092.6,14220.6,14220.6
1092.2,14347.1,14347.1
1091.8,14361.8,14361.8
1091.4,14223.5,14223.5
1091,14408.8,14408.8
1090.6,14532.4,14532.4
1090.2,14576.5,14576.5
1089.8,15047.1,15047.1
1089.4,14397.1,14397.1
1089,14352.9,14352.9
1088.6,14700,14700
1088.2,14458.8,14458.8
1087.8,14305.9,14305.9
1087.4,14873.5,14873.5
1087,14520.6,14520.6
1086.6,14720.6,14720.6
1086.2,14705.9,14705.9
1085.8,14752.9,14752.9
1085.4,14641.2,14641.2
1085,14350,14350
1084.6,14729.4,14729.4
1084.2,14697.1,14697.1
1083.8,15108.8,15108.8
1083.4,14676.5,14676.5
1083,14620.6,14620.6
1082.6,14976.5,14976.5
1082.2,14452.9,14452.9
1081.8,14961.8,14961.8
1081.4,14835.3,14835.3
1081,14944.1,14944.1
1080.6,14832.4,14832.4
1080.2,15185.3,15185.3
1079.8,14482.4,14482.4
1079.4,15091.2,15091.2
1079,14876.5,14876.5
1078.6,14832.4,14832.4
1078.2,14861.8,14861.8
1077.8,15038.2,15038.2
1077.4,15032.4,15032.4
1077,14700,14700
1076.6,14417.6,14417.6
1076.2,14941.2,14941.2
1075.8,15085.3,15085.3
1075.4,14538.2,14538.2
1075,15305.9,15305.9
1074.6,14758.8,14758.8
1074.2,15067.6,15067.6
1073.8,15200,15200
1073.4,15211.8,15211.8
1073,14858.8,14858.8
1072.6,14994.1,14994.1
1072.2,15279.4,15279.4
1071.8,15250,15250
1071.4,14988.2,14988.2
1071,15023.5,15023.5
1070.6,14938.2,14938.2
1070.2,15023.5,15023.5
1069.8,14964.7,14964.7
1069.4,15255.9,15255.9
1069,15023.5,15023.5
1068.6,15197.1,15197.1
1068.2,14917.6,14917.6
1067.8,15417.6,15417.6
1067.4,15385.3,15385.3
1067,15952.9,15952.9
1066.6,15291.2,15291.2
1066.2,15282.4,15282.4
1065.8,14891.2,14891.2
1065.4,15335.3,15335.3
1065,15152.9,15152.9
1064.6,15505.9,15505.9
1064.2,15517.6,15517.6
1063.8,15202.9,15202.9
1063.4,15282.4,15282.4
1063,15473.5,15473.5
1062.6,15617.6,15617.6
1062.2,15585.3,15585.3
1061.8,15332.4,15332.4
1061.4,15552.9,15552.9
1061,15738.2,15738.2
1060.6,15538.2,15538.2
1060.2,15682.4,15682.4
1059.8,15529.4,15529.4
1059.4,15776.5,15776.5
1059,14902.9,14902.9
1058.6,15414.7,15414.7
1058.2,15520.6,15520.6
1057.8,16100,16100
1057.4,15852.9,15852.9
1057,15620.6,15620.6
1056.6,15411.8,15411.8
1056.2,15638.2,15638.2
1055.8,15520.6,15520.6
1055.4,15988.2,15988.2
1055,15808.8,15808.8
1054.6,15950,15950
1054.2,16097.1,16097.1
1053.8,15461.8,15461.8
1053.4,15994.1,15994.1
1053,15558.8,15558.8
1052.6,15829.4,15829.4
1052.2,15535.3,15535.3
1051.8,15964.7,15964.7
1051.4,15655.9,15655.9
1051,15911.8,15911.8
1050.6,15664.7,15664.7
1050.2,15679.4,15679.4
1049.8,16200,16200
1049.4,15820.6,15820.6
1049,15800,15800
1048.6,16020.6,16020.6
1048.2,15964.7,15964.7
1047.8,16097.1,16097.1
1047.4,16176.5,16176.5
1047,15952.9,15952.9
1046.6,15870.6,15870.6
1046.2,15970.6,15970.6
1045.8,16405.9,16405.9
1045.4,15755.9,15755.9
1045,15952.9,15952.9
1044.6,16323.5,16323.5
1044.2,16135.3,16135.3
1043.8,16391.2,16391.2
1043.4,16705.9,16705.9
1043,15729.4,15729.4
1042.6,16276.5,16276.5
1042.2,16147.1,16147.1
1041.8,16323.5,16323.5
1041.4,16167.6,16167.6
1041,16055.9,16055.9
1040.6,16552.9,16552.9
1040.2,16185.3,16185.3
1039.8,15929.4,15929.4
1039.4,16300,16300
1039,16191.2,16191.2
1038.6,15961.8,15961.8
1038.2,16364.7,16364.7
1037.8,16155.9,16155.9
1037.4,16152.9,16152.9
1037,16476.5,16476.5
1036.6,16267.6,16267.6
1036.2,16488.2,16488.2
1035.8,16370.6,16370.6
1035.4,16261.8,16261.8
1035,16376.5,16376.5
1034.6,16832.4,16832.4
1034.2,16991.2,16991.2
1033.8,16244.1,16244.1
1033.4,16691.2,16691.2
1033,16567.6,16567.6
1032.6,16505.9,16505.9
1032.2,16561.8,16561.8
1031.8,16838.2,16838.2
1031.4,16538.2,16538.2
1031,16529.4,16529.4
1030.6,17023.5,17023.5
1030.2,16632.4,16632.4
1029.8,16579.4,16579.4
1029.4,16264.7,16264.7
1029,16629.4,16629.4
1028.6,16897.1,16897.1
1028.2,16626.5,16626.5
1027.8,16782.4,16782.4
1027.4,16894.1,16894.1
1027,17347.1,17347.1
1026.6,16573.5,16573.5
1026.2,16526.5,16526.5
1025.8,16805.9,16805.9
1025.4,16650,16650
1025,16902.9,16902.9
1024.6,16591.2,16591.2
1024.2,17111.8,17111.8
1023.8,16970.6,16970.6
1023.4,17232.4,17232.4
1023,16626.5,16626.5
1022.6,17097.1,17097.1
1022.2,17152.9,17152.9
1021.8,16926.5,16926.5
1021.4,17417.6,17417.6
1021,17232.4,17232.4
1020.6,17226.5,17226.5
1020.2,17223.5,17223.5
1019.8,17217.6,17217.6
1019.4,16620.6,16620.6
1019,17032.4,17032.4
1018.6,17576.5,17576.5
1018.2,17255.9,17255.9
1017.8,17311.8,17311.8
1017.4,17097.1,17097.1
1017,17029.4,17029.4
1016.6,17129.4,17129.4
1016.2,17691.2,17691.2
1015.8,17311.8,17311.8
1015.4,17550,17550
1015,17305.9,17305.9
1014.6,17655.9,17655.9
1014.2,17391.2,17391.2
1013.8,17547.1,17547.1
1013.4,17223.5,17223.5
1013,16932.4,16932.4
1012.6,17341.2,17341.2
1012.2,16938.2,16938.2
1011.8,17461.8,17461.8
1011.4,17408.8,17408.8
1011,17247.1,17247.1
1010.6,17720.6,17720.6
1010.2,16879.4,16879.4
1009.8,17291.2,17291.2
1009.4,17482.4,17482.4
1009,17602.9,17602.9
1008.6,17470.6,17470.6
1008.2,17252.9,17252.9
1007.8,17811.8,17811.8
1007.4,17614.7,17614.7
1007,17661.8,17661.8
1006.6,17732.4,17732.4
1006.2,17832.4,17832.4
1005.8,17829.4,17829.4
1005.4,17629.4,17629.4
1005,18526.5,18526.5
1004.6,17605.9,17605.9
1004.2,18420.6,18420.6
1003.8,18355.9,18355.9
1003.4,18276.5,18276.5
1003,18361.8,18361.8
1002.6,18400,18400
1002.2,18258.8,18258.8
1001.8,18352.9,18352.9
1001.4,18123.5,18123.5
1001,18011.8,18011.8
1000.6,18458.8,18458.8
1000.2,18350,18350
999.8,18702.9,18702.9
999.4,18314.7,18314.7
999,18700,18700
998.6,18255.9,18255.9
998.2,18364.7,18364.7
997.8,18464.7,18464.7
997.4,18097.1,18097.1
997,17955.9,17955.9
996.6,17541.2,17541.2
996.2,18020.6,18020.6
995.8,18382.4,18382.4
995.4,18038.2,18038.2
995,17723.5,17723.5
994.6,18232.4,18232.4
994.2,18217.6,18217.6
993.8,18102.9,18102.9
993.4,17658.8,17658.8
993,17844.1,17844.1
992.6,17717.6,17717.6
992.2,17867.6,17867.6
991.8,17741.2,17741.2
991.4,17920.6,17920.6
991,17817.6,17817.6
990.6,17364.7,17364.7
990.2,17717.6,17717.6
989.8,17338.2,17338.2
989.4,18188.2,18188.2
989,17258.8,17258.8
988.6,17852.9,17852.9
988.2,17479.4,17479.4
987.8,17508.8,17508.8
987.4,17635.3,17635.3
987,17717.6,17717.6
986.6,17711.8,17711.8
986.2,17608.8,17608.8
985.8,17558.8,17558.8
985.4,17673.5,17673.5
985,17673.5,17673.5
984.6,17685.3,17685.3
984.2,17685.3,17685.3
983.8,17788.2,17788.2
983.4,17820.6,17820.6
983,18276.5,18276.5
982.6,18300,18300
982.2,18526.5,18526.5
981.8,18361.8,18361.8
981.4,18435.3,18435.3
981,19144.1,19144.1
980.6,19126.5,19126.5
980.2,19344.1,19344.1
979.8,19994.1,19994.1
979.4,19629.4,19629.4
979,20032.4,20032.4
978.6,19802.9,19802.9
978.2,19947.1,19947.1
977.8,19955.9,19955.9
977.4,19873.5,19873.5
977,20358.8,20358.8
976.6,20208.8,20208.8
976.2,20485.3,20485.3
975.8,19958.8,19958.8
975.4,20038.2,20038.2
975,19911.8,19911.8
974.6,19270.6,19270.6
974.2,19929.4,19929.4
973.8,19138.2,19138.2
973.4,19500,19500
973,18614.7,18614.7
972.6,18394.1,18394.1
972.2,18458.8,18458.8
971.8,18423.5,18423.5
971.4,17967.6,17967.6
971,18105.9,18105.9
970.6,17582.4,17582.4
970.2,17702.9,17702.9
969.8,17285.3,17285.3
969.4,17552.9,17552.9
969,17223.5,17223.5
968.6,17267.6,17267.6
968.2,16961.8,16961.8
967.8,16638.2,16638.2
967.4,16794.1,16794.1
967,16967.6,16967.6
966.6,16423.5,16423.5
966.2,16685.3,16685.3
965.8,16647.1,16647.1
965.4,16597.1,16597.1
965,16688.2,16688.2
964.6,16532.4,16532.4
964.2,16323.5,16323.5
963.8,16458.8,16458.8
963.4,16617.6,16617.6
963,16638.2,16638.2
962.6,16150,16150
962.2,16558.8,16558.8
961.8,16632.4,16632.4
961.4,16852.9,16852.9
961,17008.8,17008.8
960.6,16576.5,16576.5
960.2,15973.5,15973.5
959.8,16773.5,16773.5
959.4,16694.1,16694.1
959,16450,16450
958.6,16667.6,16667.6
958.2,16452.9,16452.9
957.8,16105.9,16105.9
957.4,16635.3,16635.3
957,16423.5,16423.5
956.6,16617.6,16617.6
956.2,16585.3,16585.3
955.8,16517.6,16517.6
955.4,16250,16250
955,16597.1,16597.1
954.6,16447.1,16447.1
954.2,16944.1,16944.1
953.8,17132.4,17132.4
953.4,16770.6,16770.6
953,17079.4,17079.4
952.6,16805.9,16805.9
952.2,16929.4,16929.4
951.8,16864.7,16864.7
951.4,17029.4,17029.4
951,17161.8,17161.8
950.6,17023.5,17023.5
950.2,16626.5,16626.5
949.8,17052.9,17052.9
949.4,16300,16300
949,16576.5,16576.5
948.6,16350,16350
948.2,16426.5,16426.5
947.8,15732.4,16215.7
947.4,16488.2,16219.2
947,15826.5,16222.6
946.6,16541.2,16226.1
946.2,16267.6,16229.6
945.8,16258.8,16233
945.4,16361.8,16236.5
945,16405.9,16240
944.6,16214.7,16243.5
944.2,16094.1,16246.9
943.8,16482.4,16250.4
943.4,16529.4,16253.9
943,17294.1,16257.4
942.6,16447.1,16260.8
942.2,16585.3,16264.3
941.8,16588.2,16267.8
941.4,16605.9,16271.2
941,16826.5,16274.7
940.6,16297.1,16278.2
940.2,16814.7,16281.7
939.8,16735.3,16285.1
939.4,16350,16288.6
939,16552.9,16292.1
938.6,16664.7,16295.5
938.2,16723.5,16299
937.8,16308.8,16302.5
937.4,16882.4,16306
937,16538.2,16309.4
936.6,16350,16312.9
936.2,16658.8,16316.4
935.8,16335.3,16319.9
935.4,17123.5,16323.3
935,16505.9,16326.8
934.6,17282.4,16330.3
934.2,16991.2,16333.7
933.8,17252.9,16337.2
933.4,17367.6,16340.7
933,17402.9,16344.2
932.6,17091.2,16347.6
932.2,17591.2,16351.1
931.8,17717.6,16354.6
931.4,18308.8,16358
931,18505.9,16361.5
930.6,17894.1,16365
930.2,17529.4,16368.5
929.8,16600,16371.9
929.4,16729.4,16375.4
929,16217.6,16378.9
928.6,16329.4,16382.4
928.2,16600,16600
927.8,16467.6,16467.6
927.4,16558.8,16558.8
927,16582.4,16582.4
926.6,16929.4,16929.4
926.2,16344.1,16344.1
925.8,16291.2,16291.2
925.4,16294.1,16294.1
925,16552.9,16552.9
924.6,16750,16750
924.2,16497.1,16497.1
923.8,16402.9,16402.9
923.4,16729.4,16729.4
923,16864.7,16864.7
922.6,16367.6,16367.6
922.2,16373.5,16373.5
921.8,16629.4,16629.4
921.4,16555.9,16555.9
921,16655.9,16655.9
920.6,16917.6,16917.6
920.2,17185.3,17185.3
919.8,16961.8,16961.8
919.4,16667.6,16667.6
919,16420.6,16420.6
918.6,16623.5,16623.5
918.2,17155.9,17155.9
917.8,16758.8,16758.8
917.4,16494.1,16494.1
917,16355.9,16355.9
916.6,16588.2,16588.2
916.2,16450,16450
915.8,16920.6,16920.6
915.4,16738.2,16738.2
915,16561.8,16561.8
914.6,16950,16950
914.2,16947.1,16947.1
913.8,16973.5,16973.5
913.4,16764.7,16764.7
913,16411.8,16411.8
912.6,17308.8,17308.8
912.2,17170.6,17170.6
911.8,17135.3,17135.3
911.4,17167.6,17167.6
911,17158.8,17158.8
910.6,16711.8,16711.8
910.2,17070.6,17070.6
909.8,16644.1,16644.1
909.4,16770.6,16770.6
909,17135.3,17135.3
908.6,16723.5,16723.5
908.2,17458.8,17458.8
907.8,17264.7,17264.7
907.4,17232.4,17232.4
907,17105.9,17105.9
906.6,17476.5,17476.5
906.2,17420.6,17420.6
905.8,17397.1,17397.1
905.4,17305.9,17305.9
905,17429.4,17429.4
904.6,16885.3,16885.3
904.2,17123.5,17123.5
903.8,17479.4,17479.4
903.4,17823.5,17823.5
903,17282.4,17282.4
902.6,17141.2,17141.2
902.2,17402.9,17402.9
901.8,17444.1,17444.1
901.4,17135.3,17135.3
901,17473.5,17473.5
900.6,17505.9,17505.9
900.2,17641.2,17641.2
899.8,17320.6,17320.6
899.4,17700,17700
899,17511.8,17511.8
898.6,17567.6,17567.6
898.2,17282.4,17282.4
897.8,17797.1,17797.1
897.4,17447.1,17447.1
897,17976.5,17976.5
896.6,17997.1,17997.1
896.2,17702.9,17702.9
895.8,17585.3,17585.3
895.4,17388.2,17388.2
895,18008.8,18008.8
894.6,18114.7,18114.7
894.2,17664.7,17664.7
893.8,17826.5,17826.5
893.4,17558.8,17558.8
893,17494.1,17494.1
892.6,18117.6,18117.6
892.2,17544.1,17544.1
891.8,18017.6,18017.6
891.4,18067.6,18067.6
891,17526.5,17526.5
890.6,17964.7,17964.7
890.2,17720.6,17720.6
889.8,17835.3,17835.3
889.4,18305.9,18305.9
889,18064.7,18064.7
888.6,18376.5,18376.5
888.2,18302.9,18302.9
887.8,17997.1,17997.1
887.4,18035.3,18035.3
887,18082.4,18082.4
886.6,18523.5,18523.5
886.2,18102.9,18102.9
885.8,18220.6,18220.6
885.4,18400,18400
885,18391.2,18391.2
884.6,18576.5,18576.5
884.2,18323.5,18323.5
883.8,18897.1,18897.1
883.4,18758.8,18758.8
883,18473.5,18473.5
882.6,18729.4,18729.4
882.2,18329.4,18329.4
881.8,18726.5,18726.5
881.4,18800,18800
881,19055.9,19055.9
880.6,19079.4,19079.4
880.2,18385.3,18385.3
879.8,18970.6,18970.6
879.4,19158.8,19158.8
879,18952.9,18952.9
878.6,18614.7,18614.7
878.2,19702.9,19702.9
877.8,18676.5,18676.5
877.4,19488.2,19488.2
877,18700,18700
876.6,18873.5,18873.5
876.2,19155.9,19155.9
875.8,19014.7,19014.7
875.4,18502.9,18502.9
875,19488.2,19488.2
874.6,18973.5,18973.5
874.2,18873.5,18873.5
873.8,18626.5,18626.5
873.4,19082.4,19082.4
873,18755.9,18755.9
872.6,19064.7,19064.7
872.2,18932.4,18932.4
871.8,19150,19150
871.4,19032.4,19032.4
871,19229.4,19229.4
870.6,18997.1,18997.1
870.2,18838.2,18838.2
869.8,18817.6,18817.6
869.4,18932.4,18932.4
869,19138.2,19138.2
868.6,18550,18550
868.2,18800,18800
867.8,18570.6,18570.6
867.4,18723.5,18723.5
867,18814.7,18814.7
866.6,18664.7,18664.7
866.2,18976.5,18976.5
865.8,18873.5,18873.5
865.4,19255.9,19255.9
865,19541.2,19541.2
864.6,19794.1,19794.1
864.2,20023.5,20023.5
863.8,19958.8,19958.8
863.4,19914.7,19914.7
863,20114.7,20114.7
862.6,19808.8,19808.8
862.2,20826.5,20826.5
861.8,20435.3,20435.3
861.4,20914.7,20914.7
861,20747.1,20747.1
860.6,21214.7,21214.7
860.2,21470.6,21470.6
859.8,21011.8,21011.8
859.4,21276.5,21276.5
859,21097.1,21097.1
858.6,20632.4,20632.4
858.2,20632.4,20632.4
857.8,20420.6,20420.6
857.4,20750,20750
857,20479.4,20479.4
856.6,20955.9,20955.9
856.2,20294.1,20294.1
855.8,20497.1,20497.1
855.4,20285.3,20285.3
855,20361.8,20361.8
854.6,20405.9,20405.9
854.2,20247.1,20247.1
853.8,20658.8,20658.8
853.4,19997.1,19997.1
853,19808.8,19808.8
852.6,19844.1,19844.1
852.2,19982.4,19982.4
851.8,19850,19850
851.4,19461.8,19461.8
851,19814.7,19814.7
850.6,19705.9,19705.9
850.2,19244.1,19244.1
849.8,19232.4,19232.4
849.4,19029.4,19029.4
849,19208.8,19208.8
848.6,19117.6,19117.6
848.2,19408.8,19408.8
847.8,19117.6,19117.6
847.4,18773.5,18773.5
847,18964.7,18964.7
846.6,18808.8,18808.8
846.2,18852.9,18852.9
845.8,19044.1,19044.1
845.4,18820.6,18820.6
845,18629.4,18629.4
844.6,18502.9,18502.9
844.2,18400,18400
843.8,18350,18350
843.4,18832.4,18832.4
843,18258.8,18258.8
842.6,18714.7,18714.7
842.2,18435.3,18435.3
841.8,18729.4,18729.4
841.4,18335.3,18335.3
841,18520.6,18520.6
840.6,18947.1,18947.1
840.2,19032.4,19032.4
839.8,19302.9,19302.9
839.4,19588.2,19588.2
839,19323.5,19323.5
838.6,19676.5,19676.5
838.2,20126.5,20126.5
837.8,20226.5,20226.5
837.4,21029.4,21029.4
837,21761.8,21761.8
836.6,22585.3,22585.3
836.2,23161.8,23161.8
835.8,23502.9,23502.9
835.4,24497.1,24497.1
835,24885.3,24885.3
834.6,24941.2,24941.2
834.2,25482.4,25482.4
833.8,26008.8,26008.8
833.4,26447.1,26447.1
833,26473.5,26473.5
832.6,26350,26350
832.2,25508.8,25508.8
831.8,25400,25400
831.4,24647.1,24647.1
831,23620.6,23620.6
830.6,23382.4,23382.4
830.2,22479.4,22479.4
829.8,22797.1,22797.1
829.4,22294.1,22294.1
829,21841.2,21841.2
828.6,20950,20950
828.2,21055.9,21055.9
827.8,20767.6,20767.6
827.4,20570.6,20570.6
827,20397.1,20397.1
826.6,20085.3,20085.3
826.2,20038.2,20038.2
825.8,19364.7,19364.7
825.4,19382.4,19382.4
825,19226.5,19226.5
824.6,18547.1,18547.1
824.2,18155.9,18155.9
823.8,17632.4,17632.4
823.4,17008.8,17008.8
823,16655.9,16655.9
822.6,16529.4,16529.4
822.2,16452.9,16452.9
821.8,16426.5,16426.5
821.4,15511.8,15511.8
821,16105.9,16105.9
820.6,15455.9,15455.9
820.2,15773.5,15773.5
819.8,15591.2,15591.2
819.4,15800,15800
819,15517.6,15517.6
818.6,15600,15600
818.2,15414.7,15414.7
817.8,15941.2,15941.2
817.4,15679.4,15679.4
817,15870.6,15870.6
816.6,15523.5,15523.5
816.2,15852.9,15852.9
815.8,15908.8,15908.8
815.4,15741.2,15741.2
815,15158.8,15158.8
814.6,15429.4,15429.4
814.2,15394.1,15394.1
813.8,15258.8,15258.8
813.4,15573.5,15573.5
813,15364.7,15364.7
812.6,15352.9,15352.9
812.2,15423.5,15423.5
811.8,15588.2,15588.2
811.4,15279.4,15279.4
811,15085.3,15085.3
810.6,15300,15300
810.2,15355.9,15355.9
809.8,15614.7,15614.7
809.4,15417.6,15417.6
809,15208.8,15208.8
808.6,15652.9,15652.9
808.2,15470.6,15470.6
807.8,15564.7,15564.7
807.4,15697.1,15697.1
807,15205.9,15205.9
806.6,15314.7,15314.7
806.2,16091.2,16091.2
805.8,15291.2,15291.2
805.4,15423.5,15423.5
805,15123.5,15123.5
804.6,15370.6,15370.6
804.2,15814.7,15814.7
803.8,15841.2,15841.2
803.4,15341.2,15341.2
803,15347.1,15347.1
802.6,15632.4,15632.4
802.2,15738.2,15738.2
801.8,15452.9,15452.9
801.4,15526.5,15526.5
801,15711.8,15711.8
800.6,16179.4,16179.4
800.2,15897.1,15897.1
799.8,15135.3,15135.3
799.4,15738.2,15738.2
799,15611.8,15611.8
798.6,15629.4,15629.4
798.2,15479.4,15479.4
797.8,15694.1,15694.1
797.4,15697.1,15697.1
797,15676.5,15676.5
796.6,15479.4,15479.4
796.2,15885.3,15885.3
795.8,16038.2,16038.2
795.4,15891.2,15891.2
795,15714.7,15714.7
794.6,15879.4,15879.4
794.2,15514.7,15514.7
793.8,15897.1,15897.1
793.4,15844.1,15844.1
793,15867.6,15867.6
792.6,15444.1,15444.1
792.2,15932.4,15932.4
791.8,15961.8,15961.8
791.4,16029.4,16029.4
791,15644.1,15644.1
790.6,16291.2,16291.2
790.2,15991.2,15991.2
789.8,15955.9,15955.9
789.4,16014.7,16014.7
789,16226.5,16226.5
788.6,16161.8,16161.8
788.2,15964.7,15964.7
787.8,15926.5,15926.5
787.4,15800,15800
787,16044.1,16044.1
786.6,15970.6,15970.6
786.2,16352.9,16352.9
785.8,15988.2,15988.2
785.4,16132.4,16132.4
785,15664.7,15664.7
784.6,15844.1,15844.1
784.2,16102.9,16102.9
783.8,16332.4,16332.4
783.4,16447.1,16447.1
783,15908.8,15908.8
782.6,15855.9,15855.9
782.2,16317.6,16317.6
781.8,15976.5,15976.5
781.4,16129.4,16129.4
781,16173.5,16173.5
780.6,16579.4,16579.4
780.2,16241.2,16241.2
779.8,16220.6,16220.6
779.4,16223.5,16223.5
779,16252.9,16252.9
778.6,16205.9,16205.9
778.2,16282.4,16282.4
777.8,16485.3,16485.3
777.4,15976.5,15976.5
777,16623.5,16623.5
776.6,16120.6,16120.6
776.2,16488.2,16488.2
775.8,16558.8,16558.8
775.4,16579.4,16579.4
775,16520.6,16520.6
774.6,16341.2,16341.2
774.2,16732.4,16732.4
773.8,16208.8,16208.8
773.4,16091.2,16091.2
773,17067.6,17067.6
772.6,16482.4,16482.4
772.2,16285.3,16285.3
771.8,16667.6,16667.6
771.4,16611.8,16611.8
771,16585.3,16585.3
770.6,16497.1,16497.1
770.2,16850,16850
769.8,16755.9,16755.9
769.4,16514.7,16514.7
769,16667.6,16667.6
768.6,16711.8,16711.8
768.2,16652.9,16652.9
767.8,16432.4,16432.4
767.4,16685.3,16685.3
767,16664.7,16664.7
766.6,16823.5,16823.5
766.2,16997.1,16997.1
765.8,16317.6,16317.6
765.4,16685.3,16685.3
765,16697.1,16697.1
764.6,16555.9,16555.9
764.2,16441.2,16441.2
763.8,16667.6,16667.6
763.4,16700,16700
763,16832.4,16832.4
762.6,16697.1,16697.1
762.2,16735.3,16735.3
761.8,16964.7,16964.7
761.4,16826.5,16826.5
761,16776.5,16776.5
760.6,17082.4,17082.4
760.2,17202.9,17202.9
759.8,16661.8,16661.8
759.4,16644.1,16644.1
759,17058.8,17058.8
758.6,16920.6,16920.6
758.2,17594.1,17594.1
757.8,17155.9,17155.9
757.4,17102.9,17102.9
757,17155.9,17155.9
756.6,17032.4,17032.4
756.2,17102.9,17102.9
755.8,17179.4,17179.4
755.4,17094.1,17094.1
755,17505.9,17505.9
754.6,17238.2,17238.2
754.2,17041.2,17041.2
753.8,17100,17100
753.4,17050,17050
753,16464.7,16464.7
752.6,16902.9,16902.9
752.2,17370.6,17370.6
751.8,17294.1,17294.1
751.4,16950,16950
751,17588.2,17588.2
750.6,17205.9,17205.9
750.2,17426.5,17426.5
749.8,17235.3,17235.3
749.4,17208.8,17208.8
749,17120.6,17120.6
748.6,16997.1,16997.1
748.2,17358.8,17358.8
747.8,17188.2,17188.2
747.4,17332.4,17332.4
747,17291.2,17291.2
746.6,17352.9,17352.9
746.2,17064.7,17064.7
745.8,17188.2,17188.2
745.4,17497.1,17497.1
745,16958.8,16958.8
744.6,17085.3,17085.3
744.2,17150,17150
743.8,17570.6,17570.6
743.4,17323.5,17323.5
743,17173.5,17173.5
742.6,17232.4,17232.4
742.2,17894.1,17894.1
741.8,17455.9,17455.9
741.4,17561.8,17561.8
741,17455.9,17455.9
740.6,17544.1,17544.1
740.2,17176.5,17176.5
739.8,17755.9,17755.9
739.4,17550,17550
739,17482.4,17482.4
738.6,17344.1,17344.1
738.2,18176.5,18176.5
737.8,17608.8,17608.8
737.4,17494.1,17494.1
737,18241.2,18241.2
736.6,17511.8,17511.8
736.2,18111.8,18111.8
735.8,17844.1,17844.1
735.4,17547.1,17547.1
735,17982.4,17982.4
734.6,17732.4,17732.4
734.2,17823.5,17823.5
733.8,18250,18250
733.4,17708.8,17708.8
733,17408.8,17408.8
732.6,17388.2,17388.2
732.2,17623.5,17623.5
731.8,17358.8,17358.8
731.4,17614.7,17614.7
731,17461.8,17461.8
730.6,17147.1,17147.1
730.2,17820.6,17820.6
729.8,17994.1,17994.1
729.4,17350,17350
729,17002.9,17002.9
728.6,17344.1,17344.1
728.2,17561.8,17561.8
727.8,17220.6,17220.6
727.4,17405.9,17405.9
727,17085.3,17085.3
726.6,17767.6,17767.6
726.2,17341.2,17341.2
725.8,17891.2,17891.2
725.4,17658.8,17658.8
725,17217.6,17217.6
724.6,17650,17650
724.2,17561.8,17561.8
723.8,17623.5,17623.5
723.4,17994.1,17994.1
723,17897.1,17897.1
722.6,17429.4,17429.4
722.2,17973.5,17973.5
721.8,18123.5,18123.5
721.4,17964.7,17964.7
721,18023.5,18023.5
720.6,18288.2,18288.2
720.2,18352.9,18352.9
719.8,19002.9,19002.9
719.4,18720.6,18720.6
719,18370.6,18370.6
718.6,18926.5,18926.5
718.2,19094.1,19094.1
717.8,18979.4,18979.4
717.4,19452.9,19452.9
717,19079.4,19079.4
716.6,19097.1,19097.1
716.2,19208.8,19208.8
715.8,19088.2,19088.2
715.4,19005.9,19005.9
715,18641.2,18641.2
714.6,18973.5,18973.5
714.2,18120.6,18120.6
713.8,18950,18950
713.4,18723.5,18723.5
713,18547.1,18547.1
712.6,18732.4,18732.4
712.2,18902.9,18902.9
711.8,18958.8,18958.8
711.4,18926.5,18926.5
711,18647.1,18647.1
710.6,18779.4,18779.4
710.2,18917.6,18917.6
709.8,17911.8,17911.8
709.4,18576.5,18576.5
709,18623.5,18623.5
708.6,18452.9,18452.9
708.2,18808.8,18808.8
707.8,18394.1,18394.1
707.4,18700,18700
707,18647.1,18647.1
706.6,18864.7,18864.7
706.2,18782.4,18782.4
705.8,17976.5,17976.5
705.4,17911.8,17911.8
705,17158.8,17158.8
704.6,17079.4,17079.4
704.2,16750,16750
703.8,16576.5,16576.5
703.4,16679.4,16679.4
703,16129.4,16129.4
702.6,16438.2,16438.2
702.2,16235.3,16235.3
701.8,16258.8,16258.8
701.4,16258.8,16258.8
701,16114.7,16114.7
700.6,15773.5,15773.5
700.2,15691.2,15691.2
699.8,14952.9,14952.9
699.4,14700,14700
699,14476.5,14476.5
698.6,14264.7,14264.7
698.2,14252.9,14252.9
697.8,13864.7,13864.7
697.4,13923.5,13923.5
697,13444.1,13444.1
696.6,12738.2,12738.2
696.2,13291.2,13291.2
695.8,13267.6,13267.6
695.4,12514.7,12514.7
695,12447.1,12447.1
694.6,12385.3,12385.3
694.2,12223.5,12223.5
693.8,12208.8,12208.8
693.4,12002.9,12002.9
693,11832.4,11832.4
692.6,12047.1,11911.8
692.2,11855.9,11852.3
691.8,12385.3,11791
691.4,12964.7,11728
691,13450,11663.6
690.6,14970.6,11597.9
690.2,17817.6,11531.4
689.8,23197.1,11464.6
689.4,32611.8,11398.4
689,50026.5,11334.3
688.6,71064.7,11274.8
688.2,92226.5,11222.9
687.8,101129,11181.7
687.4,92555.9,11152.4
687,69602.9,11134.1
686.6,46302.9,11123.5
686.2,28497.1,11117.7
685.8,19873.5,11114.2
685.4,15994.1,11111.8
685,14779.4,11110.1
684.6,13814.7,11108.9
684.2,13229.4,11108.1
683.8,12550,11107.5
683.4,12264.7,11107.2
683,12020.6,11107
682.6,11750,11106.9
682.2,11097.1,11106.9
681.8,11120.6,11106.9
681.4,11102.9,11102.9
681,11002.9,11002.9
680.6,10744.1,10744.1
680.2,11100,11100
679.8,10844.1,10844.1
679.4,10597.1,10597.1
679,10802.9,10802.9
678.6,10588.2,10588.2
678.2,10494.1,10494.1
677.8,10635.3,10635.3
677.4,10635.3,10635.3
677,10641.2,10641.2
676.6,10655.9,10655.9
676.2,10764.7,10764.7
675.8,10376.5,10376.5
675.4,10941.2,10941.2
675,10908.8,10908.8
674.6,10350,10350
674.2,10708.8,10708.8
673.8,10744.1,10744.1
673.4,10676.5,10676.5
673,10850,10850
672.6,10558.8,10558.8
672.2,10717.6,10717.6
671.8,10891.2,10891.2
671.4,10773.5,10773.5
671,10652.9,10652.9
670.6,10658.8,10658.8
670.2,10626.5,10626.5
669.8,10761.8,10761.8
669.4,10758.8,10758.8
669,10700,10700
668.6,10738.2,10738.2
668.2,10605.9,10605.9
667.8,10505.9,10505.9
667.4,10535.3,10535.3
667,10782.4,10782.4
666.6,10611.8,10611.8
666.2,10888.2,10888.2
665.8,10305.9,10305.9
665.4,10508.8,10508.8
665,10788.2,10788.2
664.6,10723.5,10723.5
664.2,10852.9,10852.9
663.8,10776.5,10776.5
663.4,10755.9,10755.9
663,10897.1,10897.1
662.6,10458.8,10458.8
662.2,10711.8,10711.8
661.8,10547.1,10547.1
661.4,10594.1,10594.1
661,10694.1,10694.1
660.6,10976.5,10976.5
660.2,10417.6,10417.6
659.8,10785.3,10785.3
659.4,10711.8,10711.8
659,10861.8,10861.8
658.6,10735.3,10735.3
658.2,10935.3,10935.3
657.8,10502.9,10502.9
657.4,10847.1,10847.1
657,11138.2,11138.2
656.6,10714.7,10714.7
656.2,10826.5,10826.5
655.8,10879.4,10879.4
655.4,10850,10850
655,11050,11050
654.6,10788.2,10788.2
654.2,10805.9,10805.9
653.8,10967.6,10967.6
653.4,10782.4,10782.4
653,10850,10850
652.6,10958.8,10958.8
652.2,11214.7,11214.7
651.8,10973.5,10973.5
651.4,10870.6,10870.6
651,10923.5,10923.5
650.6,11294.1,11294.1
650.2,10858.8,10858.8
649.8,10697.1,10697.1
649.4,11044.1,11044.1
649,10835.3,10835.3
648.6,10952.9,10952.9
648.2,11076.5,11076.5
647.8,11388.2,11388.2
647.4,11376.5,11376.5
647,10973.5,10973.5
646.6,11102.9,11102.9
646.2,10694.1,10694.1
645.8,11150,11150
645.4,10820.6,10820.6
645,10911.8,10911.8
644.6,10958.8,10958.8
644.2,10820.6,10820.6
643.8,10926.5,10926.5
643.4,11058.8,11058.8
643,10714.7,10714.7
642.6,10655.9,10655.9
642.2,11000,11000
641.8,10897.1,10897.1
641.4,10600,10600
641,11070.6,11070.6
640.6,11097.1,11097.1
640.2,10994.1,10994.1
639.8,10864.7,10864.7
639.4,11155.9,11155.9
639,10850,10850
638.6,11267.6,11267.6
638.2,11273.5,11273.5
637.8,10661.8,10661.8
637.4,10944.1,10944.1
637,10773.5,10773.5
636.6,10917.6,10917.6
636.2,10944.1,10944.1
635.8,11082.4,11082.4
635.4,10720.6,10720.6
635,10976.5,10976.5
634.6,10829.4,10829.4
634.2,10700,10700
633.8,10985.3,10985.3
633.4,11064.7,11064.7
633,10691.2,10691.2
632.6,10808.8,10808.8
632.2,10717.6,10717.6
631.8,10882.4,10882.4
631.4,10794.1,10794.1
631,10600,10600
630.6,11023.5,11023.5
630.2,11058.8,11058.8
629.8,10932.4,10932.4
629.4,10670.6,10670.6
629,11079.4,11079.4
628.6,10779.4,10779.4
628.2,10650,10650
627.8,10667.6,10667.6
627.4,10894.1,10894.1
627,10779.4,10779.4
626.6,11173.5,11173.5
626.2,10829.4,10829.4
625.8,10726.5,10726.5
625.4,10750,10750
625,10723.5,10723.5
624.6,10520.6,10520.6
624.2,10900,10900
623.8,10782.4,10782.4
623.4,10758.8,10758.8
623,10561.8,10561.8
622.6,10655.9,10655.9
622.2,10682.4,10682.4
621.8,11041.2,11041.2
621.4,10779.4,10779.4
621,10994.1,10994.1
620.6,11014.7,11014.7
620.2,10811.8,10811.8
619.8,10782.4,10782.4
619.4,10800,10800
619,10694.1,10694.1
618.6,10852.9,10852.9
618.2,10994.1,10994.1
617.8,10832.4,10832.4
617.4,10852.9,10852.9
617,11029.4,11029.4
616.6,11052.9,11052.9
616.2,10864.7,10864.7
615.8,11005.9,11005.9
615.4,10788.2,10788.2
615,11026.5,11026.5
614.6,10802.9,10802.9
614.2,11170.6,11170.6
613.8,10902.9,10902.9
613.4,11200,11200
613,10941.2,10941.2
612.6,10947.1,10947.1
612.2,10855.9,10855.9
611.8,10847.1,10847.1
611.4,10917.6,10917.6
611,11082.4,11082.4
610.6,11041.2,11041.2
610.2,11232.4,11232.4
609.8,11058.8,11058.8
609.4,11061.8,11061.8
609,11105.9,11105.9
608.6,11067.6,11067.6
608.2,10817.6,10817.6
607.8,11082.4,11082.4
607.4,10917.6,10917.6
607,11329.4,11329.4
606.6,10891.2,10891.2
606.2,10902.9,10902.9
605.8,11191.2,11191.2
605.4,11102.9,11102.9
605,11170.6,11170.6
604.6,11044.1,11044.1
604.2,11479.4,11479.4
603.8,11135.3,11135.3
603.4,11055.9,11055.9
603,11273.5,11273.5
602.6,11288.2,11288.2
602.2,11041.2,11041.2
601.8,11320.6,11320.6
601.4,10967.6,10967.6
601,10938.2,10938.2
600.6,11064.7,11064.7
600.2,11247.1,11247.1
599.8,11182.4,11182.4
599.4,11558.8,11558.8
599,11126.5,11126.5
598.6,11250,11250
598.2,11326.5,11326.5
597.8,11114.7,11114.7
597.4,11191.2,11191.2
597,11461.8,11461.8
596.6,11364.7,11364.7
596.2,11391.2,11391.2
595.8,11370.6,11370.6
595.4,11526.5,11526.5
595,11373.5,11373.5
594.6,11300,11300
594.2,11402.9,11402.9
593.8,11100,11100
593.4,11417.6,11417.6
593,11129.4,11129.4
592.6,11229.4,11229.4
592.2,11202.9,11202.9
591.8,11197.1,11197.1
591.4,11400,11400
591,11141.2,11141.2
590.6,11361.8,11361.8
590.2,11041.2,11041.2
589.8,10808.8,10808.8
589.4,11558.8,11558.8
589,11520.6,11520.6
588.6,10985.3,10985.3
588.2,11217.6,11217.6
587.8,11391.2,11391.2
587.4,11467.6,11467.6
587,11158.8,11158.8
586.6,11605.9,11605.9
586.2,11508.8,11508.8
585.8,11120.6,11120.6
585.4,11229.4,11229.4
585,11220.6,11220.6
584.6,11429.4,11429.4
584.2,11541.2,11541.2
583.8,11338.2,11338.2
583.4,11517.6,11517.6
583,11267.6,11267.6
582.6,11108.8,11108.8
582.2,11479.4,11479.4
581.8,11229.4,11229.4
581.4,11402.9,11402.9
581,11355.9,11355.9
580.6,11473.5,11473.5
580.2,11355.9,11355.9
579.8,11691.2,11691.2
579.4,11455.9,11455.9
579,11567.6,11567.6
578.6,11505.9,11505.9
578.2,11573.5,11573.5
577.8,11714.7,11714.7
577.4,11738.2,11738.2
577,11814.7,11814.7
576.6,11552.9,11552.9
576.2,11652.9,11652.9
575.8,11638.2,11638.2
575.4,11544.1,11544.1
575,11388.2,11388.2
574.6,11608.8,11608.8
574.2,11570.6,11570.6
573.8,11655.9,11655.9
573.4,11570.6,11570.6
573,11555.9,11555.9
572.6,11758.8,11758.8
572.2,11591.2,11591.2
571.8,11535.3,11535.3
571.4,11558.8,11558.8
571,11794.1,11794.1
570.6,11620.6,11620.6
570.2,11985.3,11985.3
569.8,12117.6,12117.6
569.4,12035.3,12035.3
569,11808.8,11808.8
568.6,12158.8,12158.8
568.2,11929.4,11929.4
567.8,11997.1,11997.1
567.4,11523.5,11523.5
567,11458.8,11458.8
566.6,11458.8,11458.8
566.2,11067.6,11067.6
565.8,11164.7,11164.7
565.4,11141.2,11141.2
565,10917.6,10917.6
564.6,10961.8,10961.8
564.2,11211.8,11211.8
563.8,10911.8,10911.8
563.4,11167.6,11167.6
563,10973.5,10973.5
562.6,11147.1,11147.1
562.2,11041.2,11041.2
561.8,11032.4,11032.4
561.4,11014.7,11014.7
561,11414.7,11414.7
560.6,11270.6,11270.6
560.2,11276.5,11276.5
559.8,10817.6,10817.6
559.4,11029.4,11029.4
559,11308.8,11308.8
558.6,11329.4,11329.4
558.2,11264.7,11264.7
557.8,11597.1,11597.1
557.4,11491.2,11491.2
557,12038.2,12038.2
556.6,12014.7,12014.7
556.2,11829.4,11829.4
555.8,11885.3,11885.3
555.4,12173.5,12173.5
555,12361.8,12361.8
554.6,12326.5,12326.5
554.2,12414.7,12414.7
553.8,12250,12250
553.4,12258.8,12258.8
553,11794.1,11794.1
552.6,12141.2,12141.2
552.2,12120.6,12120.6
551.8,12358.8,12358.8
551.4,12314.7,12314.7
551,12394.1,12394.1
550.6,12144.1,12144.1
550.2,11955.9,11955.9
549.8,12358.8,12358.8
549.4,11470.6,11470.6
549,11929.4,11929.4
548.6,11652.9,11652.9
548.2,11291.2,11291.2
547.8,10941.2,10941.2
547.4,10691.2,10691.2
547,10979.4,10979.4
546.6,10350,10350
546.2,10291.2,10291.2
545.8,10420.6,10420.6
545.4,10026.5,10026.5
545,9964.71,9964.71
544.6,9838.24,9838.24
544.2,9588.24,9588.24
543.8,9588.24,9588.24
543.4,9247.06,9247.06
543,8905.88,8905.88
542.6,8867.65,8867.65
542.2,8705.88,8705.88
541.8,8647.06,8647.06
541.4,8597.06,8597.06
541,8376.47,8376.47
540.6,8229.41,8229.41
540.2,8285.29,8285.29
539.8,8073.53,8073.53
539.4,7550,7550
539,7288.24,7288.24
538.6,7402.94,7402.94
538.2,7194.12,7194.12
537.8,7044.12,7044.12
537.4,7323.53,7323.53
537,7302.94,7302.94
536.6,7314.71,7314.71
536.2,7052.94,7052.94
535.8,7529.41,7529.41
535.4,7444.12,7531.37
535,7620.59,7554.08
534.6,7985.29,7576.78
534.2,8841.18,7599.48
533.8,10500,7622.19
533.4,13094.1,7644.89
533,18223.5,7667.6
532.6,28685.3,7690.3
532.2,43564.7,7713
531.8,56494.1,7735.71
531.4,55661.8,7758.41
531,42317.6,7781.11
530.6,26502.9,7803.82
530.2,16620.6,7826.52
529.8,12652.9,7849.23
529.4,10847.1,7871.93
529,9726.47,7894.63
528.6,8947.06,7917.34
528.2,8670.59,7940.04
527.8,7679.41,7962.75
527.4,7538.24,7538.24
527,7164.71,7164.71
526.6,7352.94,7352.94
526.2,7205.88,7205.88
525.8,7002.94,7002.94
525.4,6826.47,6826.47
525,6770.59,6770.59
524.6,6908.82,6908.82
524.2,6729.41,6729.41
523.8,7067.65,7067.65
523.4,6658.82,6658.82
523,6708.82,6708.82
522.6,6694.12,6694.12
522.2,6735.29,6735.29
521.8,6885.29,6885.29
521.4,6673.53,6673.53
521,6788.24,6788.24
520.6,6964.71,6964.71
520.2,6970.59,6970.59
519.8,6817.65,6817.65
519.4,6838.24,6838.24
519,6767.65,6767.65
518.6,6794.12,6794.12
518.2,6776.47,6776.47
517.8,6835.29,6835.29
517.4,6579.41,6579.41
517,6700,6700
516.6,6764.71,6764.71
516.2,6797.06,6797.06
515.8,6873.53,6873.53
515.4,6697.06,6697.06
515,6611.76,6611.76
514.6,6814.71,6814.71
514.2,7017.65,7017.65
513.8,6932.35,6932.35
513.4,6991.18,6991.18
513,7032.35,7032.35
512.6,6961.76,6961.76
512.2,6820.59,6820.59
511.8,7041.18,7041.18
511.4,6982.35,6982.35
511,6917.65,6917.65
510.6,7164.71,7164.71
510.2,6970.59,6970.59
509.8,6785.29,6785.29
509.4,6926.47,6926.47
509,6985.29,6985.29
508.6,7279.41,7279.41
508.2,6797.06,6797.06
507.8,6873.53,6873.53
507.4,6894.12,6894.12
507,6944.12,6944.12
506.6,7023.53,7023.53
506.2,7238.24,7238.24
505.8,6897.06,6897.06
505.4,6755.88,6755.88
505,6876.47,6876.47
504.6,7076.47,7076.47
504.2,6879.41,6879.41
503.8,6908.82,6908.82
503.4,6820.59,6820.59
503,6929.41,6929.41
502.6,6741.18,6741.18
502.2,7097.06,7097.06
501.8,7085.29,7085.29
501.4,6888.24,6888.24
501,7217.65,7217.65
500.6,7023.53,7023.53
500.2,7182.35,7182.35
499.8,7291.18,7291.18
499.4,7147.06,7147.06
499,7364.71,7364.71
498.6,7011.76,7011.76
498.2,6955.88,6955.88
497.8,7047.06,7047.06
497.4,7094.12,7094.12
497,7120.59,7120.59
496.6,7138.24,7138.24
496.2,7550,7550
495.8,7129.41,7129.41
495.4,6994.12,6994.12
495,7464.71,7464.71
494.6,7223.53,7223.53
494.2,7152.94,7152.94
493.8,7323.53,7323.53
493.4,7073.53,7073.53
493,7155.88,7155.88
492.6,7167.65,7167.65
492.2,7005.88,7005.88
491.8,7317.65,7317.65
491.4,7500,7500
491,6923.53,6923.53
490.6,6955.88,6955.88
490.2,6929.41,6929.41
489.8,6994.12,6994.12
489.4,7085.29,7085.29
489,7526.47,7526.47
488.6,7247.06,7247.06
488.2,7035.29,7035.29
487.8,7282.35,7282.35
487.4,7135.29,7135.29
487,7247.06,7247.06
486.6,7420.59,7420.59
486.2,7100,7100
485.8,7326.47,7326.47
485.4,7194.12,7194.12
485,7391.18,7391.18
484.6,7294.12,7294.12
484.2,7202.94,7202.94
483.8,7220.59,7220.59
483.4,7088.24,7088.24
483,7350,7350
482.6,7458.82,7458.82
482.2,7461.76,7461.76
481.8,7482.35,7482.35
481.4,7476.47,7476.47
481,7235.29,7235.29
480.6,7532.35,7532.35
480.2,7429.41,7429.41
479.8,7267.65,7267.65
479.4,7452.94,7452.94
479,7305.88,7305.88
478.6,7323.53,7323.53
478.2,7391.18,7391.18
477.8,7682.35,7682.35
477.4,7200,7200
477,7317.65,7317.65
476.6,7470.59,7470.59
476.2,7379.41,7379.41
475.8,7508.82,7508.82
475.4,7361.76,7361.76
475,7473.53,7473.53
474.6,7367.65,7367.65
474.2,7611.76,7611.76
473.8,7479.41,7479.41
473.4,7444.12,7444.12
473,7511.76,7511.76
472.6,7452.94,7452.94
472.2,7400,7400
471.8,7420.59,7420.59
471.4,7432.35,7432.35
471,7670.59,7670.59
470.6,7450,7450
470.2,7367.65,7367.65
469.8,7708.82,7708.82
469.4,7620.59,7620.59
469,7620.59,7620.59
468.6,7314.71,7314.71
468.2,7782.35,7782.35
467.8,7300,7300
467.4,7617.65,7617.65
467,7464.71,7464.71
466.6,7650,7650
466.2,7517.65,7517.65
465.8,7588.24,7588.24
465.4,7482.35,7482.35
465,7352.94,7352.94
464.6,7738.24,7738.24
464.2,7600,7600
463.8,7723.53,7723.53
463.4,7520.59,7520.59
463,7526.47,7526.47
462.6,7400,7400
462.2,7441.18,7441.18
461.8,7255.88,7255.88
461.4,7379.41,7379.41
461,7758.82,7758.82
460.6,7700,7700
460.2,7514.71,7514.71
459.8,7779.41,7779.41
459.4,7841.18,7841.18
459,7500,7500
458.6,7476.47,7476.47
458.2,7561.76,7561.76
457.8,7488.24,7488.24
457.4,7658.82,7658.82
457,7473.53,7473.53
456.6,8067.65,8067.65
456.2,7608.82,7608.82
455.8,7797.06,7797.06
455.4,7650,7650
455,8108.82,8108.82
454.6,7685.29,7685.29
454.2,7832.35,7832.35
453.8,7935.29,7935.29
453.4,8100,8100
453,7452.94,7452.94
452.6,7791.18,7791.18
452.2,7738.24,7738.24
451.8,7770.59,7770.59
451.4,7594.12,7594.12
451,7926.47,7926.47
450.6,7558.82,7558.82
450.2,7838.24,7838.24
449.8,7435.29,7435.29
449.4,7732.35,7732.35
449,7908.82,7908.82
448.6,7964.71,7964.71
448.2,7947.06,7947.06
447.8,7785.29,7785.29
447.4,8035.29,8035.29
447,7823.53,7823.53
446.6,7870.59,7870.59
446.2,7920.59,7920.59
445.8,7944.12,7944.12
445.4,8085.29,8085.29
445,7723.53,7723.53
444.6,7902.94,7902.94
444.2,7947.06,7947.06
443.8,8041.18,8041.18
443.4,7900,7900
443,8200,8200
442.6,8100,8100
442.2,7938.24,7938.24
441.8,8032.35,8032.35
441.4,8150,8150
441,7841.18,7841.18
440.6,7855.88,7855.88
440.2,8205.88,8205.88
439.8,7882.35,7882.35
439.4,7926.47,7926.47
439,8014.71,8014.71
438.6,7917.65,7917.65
438.2,7905.88,7905.88
437.8,8064.71,8064.71
437.4,8141.18,8141.18
437,8067.65,8067.65
436.6,8108.82,8108.82
436.2,7976.47,7976.47
435.8,7985.29,7985.29
435.4,8117.65,8117.65
435,7988.24,7988.24
434.6,8011.76,8011.76
434.2,8079.41,8079.41
433.8,8232.35,8232.35
433.4,8255.88,8255.88
433,7944.12,7944.12
432.6,8052.94,8052.94
432.2,8064.71,8064.71
431.8,7994.12,7994.12
431.4,8161.76,8161.76
431,8305.88,8305.88
430.6,8061.76,8061.76
430.2,7950,7950
429.8,8373.53,8373.53
429.4,8064.71,8064.71
429,8208.82,8208.82
428.6,8473.53,8473.53
428.2,8161.76,8161.76
427.8,7952.94,7952.94
427.4,8185.29,8185.29
427,8211.76,8211.76
426.6,8414.71,8414.71
426.2,8035.29,8035.29
425.8,8482.35,8482.35
425.4,8347.06,8347.06
425,8188.24,8188.24
424.6,8305.88,8305.88
424.2,8194.12,8194.12
423.8,8250,8250
423.4,8285.29,8285.29
423,8552.94,8552.94
422.6,8361.76,8361.76
422.2,8588.24,8588.24
421.8,8370.59,8370.59
421.4,8500,8500
421,8467.65,8467.65
420.6,8152.94,8152.94
420.2,8150,8150
419.8,8276.47,8276.47
419.4,8235.29,8235.29
419,8182.35,8182.35
418.6,8276.47,8276.47
418.2,8232.35,8232.35
417.8,8044.12,8044.12
417.4,8291.18,8291.18
417,8055.88,8055.88
416.6,8326.47,8326.47
416.2,8182.35,8182.35
415.8,8000,8000
415.4,8167.65,8167.65
415,7917.65,7917.65
414.6,8000,8000
414.2,7935.29,7935.29
413.8,8138.24,8138.24
413.4,7852.94,7852.94
413,7885.29,7885.29
412.6,7808.82,7808.82
412.2,7923.53,7923.53
411.8,7688.24,7688.24
411.4,7829.41,7829.41
411,7505.88,7505.88
410.6,7620.59,7620.59
410.2,7652.94,7652.94
409.8,7420.59,7420.59
409.4,7338.24,7338.24
409,7400,7400
408.6,7388.24,7388.24
408.2,7352.94,7352.94
407.8,6994.12,6994.12
407.4,7214.71,7214.71
407,7402.94,7402.94
406.6,7294.12,7294.12
406.2,7117.65,7117.65
405.8,7194.12,7194.12
405.4,7232.35,7232.35
405,7311.76,7311.76
404.6,7335.29,7322.55
404.2,7320.59,7336.13
403.8,7394.12,7349.72
403.4,8064.71,7363.31
403,8873.53,7376.89
402.6,10911.8,7390.48
402.2,13452.9,7404.06
401.8,16026.5,7417.65
401.4,15714.7,7431.23
401,13205.9,7444.82
400.6,10811.8,7458.4
400.2,9335.29,7471.99
399.8,9379.41,7485.57
399.4,11191.2,7499.16
399,13591.2,7512.75
398.6,16317.6,7526.33
398.2,15614.7,7539.92
397.8,13605.9,7553.5
397.4,9773.53,7567.09
397,8502.94,7580.67
396.6,7814.71,7594.26
396.2,7344.12,7607.84
395.8,7664.71,7664.71
395.4,7679.41,7679.41
395,7714.71,7714.71
394.6,7267.65,7267.65
394.2,7338.24,7338.24
393.8,7350,7350
393.4,7417.65,7417.65
393,7326.47,7326.47
392.6,7344.12,7344.12
392.2,7226.47,7226.47
391.8,7355.88,7355.88
391.4,7302.94,7302.94
391,7355.88,7355.88
390.6,7079.41,7079.41
390.2,7582.35,7582.35
389.8,7344.12,7344.12
389.4,7332.35,7332.35
389,7282.35,7282.35
388.6,7538.24,7538.24
388.2,7170.59,7170.59
387.8,7344.12,7344.12
387.4,7302.94,7302.94
387,7435.29,7435.29
386.6,7532.35,7532.35
386.2,7370.59,7370.59
385.8,7400,7400
385.4,7488.24,7488.24
385,7305.88,7305.88
384.6,7558.82,7558.82
384.2,7191.18,7191.18
383.8,7391.18,7391.18
383.4,7238.24,7238.24
383,7261.76,7261.76
382.6,7705.88,7705.88
382.2,7452.94,7452.94
381.8,7520.59,7520.59
381.4,7485.29,7485.29
381,7350,7350
380.6,7182.35,7182.35
380.2,7352.94,7352.94
379.8,7394.12,7394.12
379.4,7694.12,7694.12
379,7488.24,7488.24
378.6,7635.29,7635.29
378.2,7600,7600
377.8,7373.53,7373.53
377.4,7352.94,7352.94
377,8014.71,8014.71
376.6,7594.12,7594.12
376.2,7523.53,7523.53
375.8,7526.47,7526.47
375.4,7614.71,7614.71
375,7685.29,7685.29
374.6,7350,7350
374.2,7623.53,7623.53
373.8,7550,7550
373.4,7573.53,7573.53
373,7576.47,7576.47
372.6,7552.94,7552.94
372.2,7726.47,7726.47
371.8,7811.76,7811.76
371.4,7744.12,7744.12
371,7505.88,7505.88
370.6,7611.76,7611.76
370.2,7808.82,7808.82
369.8,7691.18,7691.18
369.4,7608.82,7608.82
369,7702.94,7702.94
368.6,7814.71,7814.71
368.2,7735.29,7735.29
367.8,7623.53,7623.53
367.4,7608.82,7608.82
367,7867.65,7867.65
366.6,7952.94,7952.94
366.2,7538.24,7538.24
365.8,7908.82,7908.82
365.4,7885.29,7885.29
365,7952.94,7952.94
364.6,7679.41,7679.41
364.2,7997.06,7997.06
363.8,7826.47,7826.47
363.4,7902.94,7902.94
363,7844.12,7844.12
362.6,8088.24,8088.24
362.2,7835.29,7835.29
361.8,8029.41,8029.41
361.4,7750,7750
361,7491.18,7491.18
360.6,7908.82,7908.82
360.2,7661.76,7661.76
359.8,8067.65,8067.65
359.4,7932.35,7932.35
359,7902.94,7902.94
358.6,7882.35,7882.35
358.2,7938.24,7938.24
357.8,8200,8200
357.4,7888.24,7888.24
357,8117.65,8117.65
356.6,8038.24,8038.24
356.2,7908.82,7908.82
355.8,8194.12,8194.12
355.4,8261.76,8261.76
355,7932.35,7932.35
354.6,8002.94,8002.94
354.2,8364.71,8364.71
353.8,8138.24,8138.24
353.4,8067.65,8067.65
353,7861.76,7861.76
352.6,8044.12,8044.12
352.2,8008.82,8008.82
351.8,8155.88,8155.88
351.4,8255.88,8255.88
351,8244.12,8244.12
350.6,7870.59,7870.59
350.2,8029.41,8029.41
349.8,8082.35,8082.35
349.4,7958.82,7958.82
349,8141.18,8141.18
348.6,8050,8050
348.2,8241.18,8241.18
347.8,8111.76,8111.76
347.4,8194.12,8194.12
347,8200,8200
346.6,8391.18,8391.18
346.2,8214.71,8214.71
345.8,8541.18,8541.18
345.4,8344.12,8344.12
345,8379.41,8379.41
344.6,7967.65,7967.65
344.2,8511.76,8511.76
343.8,8108.82,8108.82
343.4,8279.41,8279.41
343,8267.65,8267.65
342.6,8085.29,8085.29
342.2,8161.76,8161.76
341.8,8600,8600
341.4,8420.59,8420.59
341,8658.82,8658.82
340.6,8117.65,8117.65
340.2,8655.88,8655.88
339.8,8417.65,8417.65
339.4,8420.59,8420.59
339,8376.47,8376.47
338.6,8297.06,8297.06
338.2,8576.47,8576.47
337.8,8664.71,8664.71
337.4,8605.88,8605.88
337,8373.53,8373.53
336.6,8417.65,8417.65
336.2,8676.47,8676.47
335.8,8579.41,8579.41
335.4,8332.35,8332.35
335,8764.71,8764.71
334.6,8602.94,8602.94
334.2,8361.76,8361.76
333.8,8600,8600
333.4,8620.59,8620.59
333,8264.71,8264.71
332.6,8464.71,8464.71
332.2,8694.12,8694.12
331.8,8755.88,8755.88
331.4,8458.82,8458.82
331,8411.76,8411.76
330.6,8532.35,8532.35
330.2,8373.53,8373.53
329.8,8711.76,8711.76
329.4,8511.76,8511.76
329,8626.47,8626.47
328.6,8658.82,8658.82
328.2,8585.29,8585.29
327.8,9008.82,9008.82
327.4,8861.76,8861.76
327,8570.59,8570.59
326.6,8591.18,8591.18
326.2,8732.35,8732.35
325.8,8752.94,8752.94
325.4,8902.94,8902.94
325,8570.59,8570.59
324.6,8538.24,8538.24
324.2,8238.24,8238.24
323.8,9100,9100
323.4,8691.18,8691.18
323,8473.53,8473.53
322.6,8829.41,8829.41
322.2,8820.59,8820.59
321.8,9005.88,9005.88
321.4,9158.82,9158.82
321,8720.59,8720.59
320.6,8982.35,8982.35
320.2,9073.53,9073.53
319.8,8729.41,8729.41
319.4,8850,8850
319,9200,9200
318.6,9241.18,9241.18
318.2,9120.59,9120.59
317.8,9267.65,9267.65
317.4,9164.71,9164.71
317,9232.35,9232.35
316.6,9185.29,9185.29
316.2,9123.53,9123.53
315.8,8985.29,8985.29
315.4,9252.94,9252.94
315,9029.41,9029.41
314.6,9135.29,9135.29
314.2,9188.24,9188.24
313.8,8885.29,8885.29
313.4,9532.35,9532.35
313,9411.76,9411.76
312.6,9447.06,9447.06
312.2,9279.41,9279.41
311.8,9432.35,9432.35
311.4,9338.24,9338.24
311,9514.71,9514.71
310.6,9514.71,9514.71
310.2,9582.35,9582.35
309.8,9273.53,9273.53
309.4,9252.94,9252.94
309,9523.53,9523.53
308.6,9102.94,9102.94
308.2,9458.82,9458.82
307.8,9217.65,9217.65
307.4,9394.12,9394.12
307,9385.29,9385.29
306.6,9508.82,9508.82
306.2,9697.06,9697.06
305.8,9673.53,9673.53
305.4,9335.29,9335.29
305,9111.76,9111.76
304.6,9444.12,9444.12
304.2,9385.29,9385.29
303.8,9244.12,9244.12
303.4,9273.53,9273.53
303,8982.35,8982.35
302.6,8947.06,8947.06
302.2,8894.12,8894.12
301.8,8902.94,8902.94
301.4,8576.47,8576.47
301,8458.82,8458.82
300.6,8373.53,8373.53
300.2,8220.59,8220.59
299.8,8000,8000
299.4,7358.82,7358.82
299,7564.71,7564.71
298.6,6952.94,6952.94
298.2,7005.88,7005.88
297.8,6702.94,6702.94
297.4,6564.71,6564.71
297,6358.82,6358.82
296.6,6302.94,6302.94
296.2,6144.12,6144.12
295.8,5747.06,5852.94
295.4,5667.65,5816.43
295,5826.47,5777.45
294.6,5782.35,5736.05
294.2,5723.53,5692.22
293.8,5791.18,5645.94
293.4,6711.76,5597.26
293,8267.65,5546.46
292.6,11235.3,5494.02
292.2,14852.9,5440.79
291.8,15532.4,5387.84
291.4,12535.3,5335.4
291,8635.29,5282.73
290.6,5970.59,5228.85
290.2,5264.71,5173.1
289.8,4835.29,5115.4
289.4,5067.65,5055.73
289,5100,4994.3
288.6,5279.41,4931.23
288.2,5729.41,4866.74
287.8,6844.12,4801.09
287.4,8458.82,4734.77
287,11802.9,4668.39
286.6,17258.8,4603.03
286.2,26417.6,4540.38
285.8,34594.1,4483.12
285.4,39141.2,4433.64
285,39629.4,4393.32
284.6,39441.2,4362.43
284.2,34888.2,4340.99
283.8,26300,4327.82
283.4,16761.8,4320.62
283,10385.3,4316.8
282.6,7323.53,4314.61
282.2,5941.18,4313.25
281.8,5538.24,4312.32
281.4,5038.24,4311.72
281,4817.65,4311.31
280.6,4758.82,4311.05
280.2,4561.76,4310.9
279.8,4511.76,4310.83
279.4,4226.47,4310.81
279,4388.24,4310.78
278.6,4220.59,4310.78
278.2,4323.53,4323.53
277.8,4338.24,4338.24
277.4,4288.24,4288.24
277,4173.53,4173.53
276.6,3958.82,3958.82
276.2,3991.18,3991.18
275.8,4023.53,4023.53
275.4,4002.94,4002.94
275,4223.53,4223.53
274.6,4141.18,4141.18
274.2,4205.88,4205.88
273.8,3991.18,3991.18
273.4,3964.71,3964.71
273,4202.94,4202.94
272.6,4211.76,4211.76
272.2,4232.35,4232.35
271.8,4152.94,4152.94
271.4,4226.47,4226.47
271,4320.59,4320.59
270.6,4100,4100
270.2,3961.76,3961.76
269.8,4179.41,4179.41
269.4,4132.35,4132.35
269,4105.88,4105.88
268.6,4214.71,4214.71
268.2,3979.41,3979.41
267.8,4214.71,4214.71
267.4,4120.59,4120.59
267,4047.06,4047.06
266.6,4147.06,4147.06
266.2,4185.29,4185.29
265.8,4200,4200
265.4,4035.29,4035.29
265,3967.65,3967.65
264.6,3852.94,3852.94
264.2,3914.71,3914.71
263.8,4117.65,4117.65
263.4,4300,4300
263,4355.88,4355.88
262.6,3961.76,3961.76
262.2,3982.35,3982.35
261.8,4170.59,4170.59
261.4,4150,4150
261,4082.35,4082.35
260.6,4297.06,4297.06
260.2,4194.12,4194.12
259.8,4261.76,4261.76
259.4,4267.65,4267.65
259,4126.47,4126.47
258.6,4358.82,4358.82
258.2,4255.88,4255.88
257.8,4314.71,4314.71
257.4,4161.76,4161.76
257,4485.29,4485.29
256.6,4373.53,4373.53
256.2,4482.35,4482.35
255.8,4258.82,4258.82
255.4,4155.88,4155.88
255,4261.76,4261.76
254.6,4370.59,4370.59
254.2,4311.76,4311.76
253.8,4455.88,4455.88
253.4,4464.71,4464.71
253,4420.59,4420.59
252.6,4291.18,4291.18
252.2,4420.59,4420.59
251.8,4535.29,4535.29
251.4,4491.18,4491.18
251,4329.41,4329.41
250.6,4285.29,4285.29
250.2,4100,4100
249.8,4379.41,4379.41
249.4,4338.24,4338.24
249,4244.12,4244.12
248.6,4188.24,4188.24
248.2,4164.71,4164.71
247.8,4100,4100
247.4,4073.53,4073.53
247,4264.71,4264.71
246.6,4088.24,4088.24
246.2,3897.06,3897.06
245.8,4008.82,4008.82
245.4,4026.47,4026.47
245,4191.18,4191.18
244.6,3794.12,3794.12
244.2,3926.47,3926.47
243.8,3835.29,3835.29
243.4,3723.53,3723.53
243,3623.53,3623.53
242.6,3870.59,3870.59
242.2,3808.82,3808.82
241.8,3594.12,3594.12
241.4,3597.06,3597.06
241,3614.71,3614.71
240.6,3652.94,3652.94
240.2,3429.41,3429.41
239.8,3561.76,3561.76
239.4,3605.88,3605.88
239,3602.94,3602.94
238.6,3614.71,3614.71
238.2,3770.59,3770.59
237.8,3635.29,3635.29
237.4,3629.41,3629.41
237,3682.35,3682.35
236.6,3929.41,3929.41
236.2,3788.24,3788.24
235.8,4214.71,4214.71
235.4,4432.35,4432.35
235,4988.24,4988.24
234.6,5244.12,5244.12
234.2,5994.12,5994.12
233.8,7038.24,7038.24
233.4,8544.12,8544.12
233,9791.18,9791.18
232.6,11647.1,11647.1
232.2,11750,11750
231.8,11979.4,11979.4
231.4,10311.8,10311.8
231,8873.53,8873.53
230.6,7058.82,7058.82
230.2,6141.18,6141.18
229.8,5414.71,5414.71
229.4,4879.41,4879.41
229,4685.29,4685.29
228.6,4491.18,4491.18
228.2,4085.29,4085.29
227.8,3800,3800
227.4,3635.29,3635.29
227,4002.94,4002.94
226.6,3797.06,3797.06
226.2,3735.29,3735.29
225.8,3652.94,3652.94
225.4,3588.24,3588.24
225,3535.29,3535.29
224.6,3338.24,3338.24
224.2,3555.88,3555.88
223.8,3326.47,3326.47
223.4,3450,3450
223,3335.29,3335.29
222.6,3314.71,3314.71
222.2,3470.59,3470.59
221.8,3341.18,3341.18
221.4,3450,3450
221,3238.24,3238.24
220.6,3455.88,3455.88
220.2,3247.06,3247.06
219.8,3320.59,3320.59
219.4,3438.24,3438.24
219,3355.88,3355.88
218.6,3300,3300
218.2,3288.24,3288.24
217.8,3347.06,3347.06
217.4,3267.65,3267.65
217,3279.41,3279.41
216.6,3194.12,3194.12
216.2,3529.41,3529.41
215.8,3491.18,3491.18
215.4,3435.29,3435.29
215,3429.41,3429.41
214.6,3479.41,3479.41
214.2,3364.71,3364.71
213.8,3394.12,3394.12
213.4,3414.71,3414.71
213,3414.71,3414.71
212.6,3441.18,3441.18
212.2,3308.82,3308.82
211.8,3344.12,3344.12
211.4,3305.88,3305.88
211,3305.88,3305.88
210.6,3276.47,3276.47
210.2,3561.76,3561.76
209.8,3514.71,3514.71
209.4,3252.94,3252.94
209,3441.18,3441.18
208.6,3167.65,3167.65
208.2,3147.06,3147.06
207.8,3261.76,3261.76
207.4,3102.94,3102.94
207,3391.18,3391.18
206.6,3173.53,3173.53
206.2,3376.47,3376.47
205.8,3144.12,3144.12
205.4,3235.29,3235.29
205,3108.82,3108.82
204.6,3311.76,3311.76
204.2,3258.82,3258.82
203.8,3452.94,3452.94
203.4,3255.88,3255.88
203,3291.18,3291.18
202.6,3247.06,3247.06
202.2,3338.24,3338.24
201.8,3311.76,3311.76
201.4,3247.06,3247.06
201,3294.12,3294.12
200.6,3426.47,3426.47
200.2,3447.06,3447.06
199.8,3355.88,3355.88
199.4,3223.53,3223.53
199,3276.47,3276.47
198.6,3197.06,3197.06
198.2,3244.12,3244.12
197.8,3350,3350
197.4,3317.65,3317.65
197,3270.59,3270.59
196.6,3402.94,3402.94
196.2,3332.35,3332.35
195.8,3394.12,3394.12
195.4,3297.06,3297.06
195,3585.29,3585.29
194.6,3314.71,3314.71
194.2,3444.12,3444.12
193.8,3517.65,3517.65
193.4,3450,3450
193,3564.71,3564.71
192.6,3508.82,3508.82
192.2,3555.88,3555.88
191.8,3600,3600
191.4,3726.47,3726.47
191,3711.76,3711.76
190.6,3567.65,3567.65
190.2,3508.82,3508.82
189.8,3567.65,3567.65
189.4,3570.59,3570.59
189,3650,3650
188.6,3567.65,3567.65
188.2,3535.29,3535.29
187.8,3497.06,3497.06
187.4,3597.06,3597.06
187,3605.88,3605.88
186.6,3476.47,3476.47
186.2,3364.71,3364.71
185.8,3600,3600
185.4,3270.59,3270.59
185,3255.88,3255.88
184.6,3026.47,3026.47
184.2,3029.41,3029.41
183.8,3247.06,3247.06
183.4,3123.53,3123.53
183,3161.76,3161.76
182.6,3014.71,3014.71
182.2,3005.88,3005.88
181.8,2888.24,2888.24
181.4,2908.82,2908.82
181,2794.12,2794.12
180.6,2873.53,2873.53
180.2,2600,2600
179.8,2594.12,2594.12
179.4,2726.47,2726.47
179,2426.47,2426.47
178.6,2520.59,2520.59
178.2,2335.29,2335.29
177.8,2452.94,2452.94
177.4,2241.18,2241.18
177,2338.24,2338.24
176.6,2120.59,2120.59
176.2,2123.53,2123.53
175.8,2097.06,2097.06
175.4,2108.82,2108.82
175,2114.71,2114.71
174.6,1929.41,1929.41
174.2,2047.06,2047.06
173.8,1982.35,1982.35
173.4,1973.53,2018.63
173,2100,2026.11
172.6,1879.41,2033.6
172.2,2070.59,2041.09
171.8,2350,2048.57
171.4,2467.65,2056.06
171,2985.29,2063.55
170.6,3647.06,2071.03
170.2,5585.29,2078.52
169.8,8779.41,2086.01
169.4,12097.1,2093.49
169,14697.1,2100.98
168.6,17311.8,2108.47
168.2,18994.1,2115.95
167.8,17897.1,2123.44
167.4,12482.4,2130.93
167,7150,2138.41
166.6,3905.88,2145.9
166.2,2791.18,2153.39
165.8,2552.94,2160.87
165.4,2508.82,2168.36
165,2235.29,2175.85
164.6,2226.47,2183.33
164.2,2088.24,2088.24
163.8,2091.18,2091.18
163.4,1991.18,1991.18
163,1908.82,1908.82
162.6,1935.29,1935.29
162.2,1761.76,1761.76
161.8,1929.41,1929.41
161.4,1894.12,1894.12
161,1861.76,1861.76
160.6,1817.65,1817.65
160.2,1891.18,1891.18
159.8,1870.59,1870.59
159.4,1941.18,1941.18
159,1770.59,1770.59
158.6,1891.18,1891.18
158.2,1876.47,1876.47
157.8,1644.12,1644.12
157.4,1785.29,1785.29
157,1835.29,1835.29
156.6,1776.47,1776.47
156.2,1817.65,1817.65
155.8,1935.29,1935.29
155.4,1808.82,1808.82
155,1811.76,1811.76
154.6,1732.35,1732.35
154.2,1791.18,1791.18
153.8,1773.53,1773.53
153.4,1717.65,1717.65
153,1850,1850
152.6,1817.65,1817.65
152.2,1885.29,1885.29
151.8,1820.59,1820.59
151.4,1864.71,1864.71
151,1873.53,1873.53
150.6,1826.47,1826.47
150.2,1829.41,1829.41
149.8,1882.35,1882.35
149.4,1926.47,1926.47
149,1900,1900
148.6,1776.47,1776.47
148.2,1858.82,1858.82
147.8,1791.18,1791.18
147.4,1902.94,1902.94
147,1826.47,1826.47
146.6,1785.29,1785.29
146.2,1829.41,1829.41
145.8,1761.76,1761.76
145.4,1770.59,1770.59
145,1970.59,1970.59
144.6,1938.24,1938.24
144.2,1941.18,1941.18
143.8,1855.88,1855.88
143.4,1732.35,1732.35
143,1811.76,1811.76
142.6,1911.76,1911.76
142.2,1873.53,1873.53
141.8,1832.35,1832.35
141.4,1932.35,1932.35
141,1782.35,1782.35
140.6,1844.12,1844.12
140.2,1932.35,1932.35
139.8,1773.53,1773.53
139.4,1800,1800
139,1902.94,1902.94
138.6,1958.82,1958.82
138.2,1820.59,1820.59
137.8,1858.82,1858.82
137.4,1914.71,1914.71
137,1908.82,1908.82
136.6,1726.47,1726.47
136.2,1714.71,1714.71
135.8,1820.59,1820.59
135.4,1791.18,1791.18
135,1702.94,1702.94
134.6,1850,1850
134.2,2082.35,2082.35
133.8,1752.94,1752.94
133.4,2026.47,2026.47
133,1935.29,1935.29
132.6,1911.76,1911.76
132.2,1829.41,1829.41
131.8,1961.76,1961.76
131.4,1800,1800
131,1750,1750
130.6,2002.94,2002.94
130.2,1888.24,1888.24
129.8,1908.82,1908.82
129.4,1761.76,1761.76
129,1879.41,1879.41
128.6,1779.41,1779.41
128.2,1817.65,1817.65
127.8,1850,1850
127.4,1764.71,1764.71
127,1870.59,1870.59
126.6,1823.53,1823.53
126.2,1864.71,1864.71
125.8,1835.29,1835.29
125.4,1970.59,1970.59
125,1955.88,1955.88
124.6,1888.24,1888.24
124.2,1879.41,1879.41
123.8,1985.29,1985.29
123.4,1985.29,1985.29
123,1905.88,1905.88
122.6,1876.47,1876.47
122.2,2011.76,2011.76
121.8,1988.24,1988.24
121.4,2041.18,2041.18
121,2064.71,2064.71
120.6,1976.47,1976.47
120.2,1814.71,1814.71
119.8,1844.12,1844.12
119.4,1952.94,1952.94
119,1800,1800
118.6,1729.41,1729.41
118.2,1785.29,1785.29
117.8,1973.53,1973.53
117.4,1750,1750
117,1823.53,1823.53
116.6,1785.29,1785.29
116.2,1867.65,1867.65
115.8,1929.41,1929.41
115.4,1829.41,1829.41
115,1758.82,1758.82
114.6,1800,1800
114.2,1885.29,1885.29
113.8,1838.24,1838.24
113.4,1817.65,1817.65
113,1805.88,1805.88
112.6,1708.82,1708.82
112.2,1767.65,1767.65
111.8,1805.88,1805.88
111.4,1967.65,1967.65
111,1794.12,1794.12
110.6,1952.94,1952.94
110.2,1797.06,1797.06
109.8,1952.94,1952.94
109.4,1785.29,1785.29
109,1861.76,1861.76
108.6,1779.41,1779.41
108.2,1808.82,1808.82
107.8,1894.12,1894.12
107.4,1832.35,1832.35
107,1917.65,1917.65
106.6,1767.65,1767.65
106.2,1882.35,1882.35
105.8,1844.12,1844.12
105.4,1820.59,1820.59
105,1950,1950
104.6,1967.65,1967.65
104.2,1911.76,1911.76
103.8,1885.29,1885.29
103.4,1923.53,1923.53
103,1767.65,1767.65
102.6,2008.82,2008.82
102.2,1902.94,1902.94
101.8,1902.94,1902.94
101.4,1935.29,1935.29
101,1908.82,1908.82
100.6,1894.12,1894.12
100.2,1970.59,1970.59
99.8,1861.76,1861.76
99.4,1767.65,1767.65
99,1847.06,1847.06
98.6,1711.76,1711.76
98.2,1782.35,1782.35
97.8,1917.65,1917.65
97.4,1885.29,1885.29
97,1891.18,1891.18
96.6,1811.76,1811.76
96.2,1944.12,1944.12
95.8,1850,1850
95.4,1885.29,1885.29
95,1841.18,1841.18
94.6,1955.88,1955.88
94.2,1920.59,1920.59
93.8,1820.59,1820.59
93.4,1852.94,1852.94
93,1979.41,1979.41
92.6,1752.94,1752.94
92.2,1938.24,1938.24
91.8,1911.76,1911.76
91.4,1832.35,1832.35
91,1776.47,1776.47
90.6,1800,1800
90.2,1897.06,1897.06
89.8,1855.88,1855.88
89.4,1691.18,1691.18
89,1914.71,1914.71
88.6,1888.24,1888.24
88.2,1858.82,1858.82
87.8,1832.35,1832.35
87.4,1652.94,1652.94
87,1850,1850
86.6,1676.47,1676.47
86.2,1947.06,1947.06
85.8,1850,1850
85.4,1776.47,1776.47
85,1794.12,1794.12
84.6,1611.76,1611.76
84.2,1797.06,1797.06
83.8,1811.76,1811.76
83.4,1805.88,1805.88
83,1814.71,1814.71
82.6,1864.71,1864.71
82.2,1894.12,1894.12
81.8,1817.65,1817.65
81.4,1829.41,1829.41
81,1782.35,1782.35
80.6,1732.35,1732.35
80.2,1829.41,1829.41
79.8,1829.41,1829.41
79.4,1941.18,1941.18
79,1935.29,1935.29
78.6,1952.94,1952.94
78.2,1882.35,1882.35
77.8,2032.35,2032.35
77.4,2029.41,2029.41
77,2194.12,2194.12
76.6,2282.35,2282.35
76.2,2241.18,2241.18
75.8,2141.18,2141.18
75.4,2155.88,2155.88
75,2208.82,2208.82
74.6,2179.41,2179.41
74.2,2258.82,2258.82
73.8,2141.18,2141.18
73.4,2000,2000
73,2085.29,2085.29
72.6,2017.65,2017.65
72.2,1823.53,1823.53
71.8,1779.41,1779.41
71.4,1758.82,1758.82
71,1723.53,1723.53
70.6,1805.88,1805.88
70.2,1676.47,1676.47
69.8,1594.12,1594.12
69.4,1708.82,1708.82
69,1658.82,1658.82
68.6,1764.71,1764.71
68.2,1729.41,1729.41
67.8,1661.76,1661.76
67.4,1735.29,1735.29
67,1735.29,1735.29
66.6,1691.18,1691.18
66.2,1785.29,1785.29
65.8,1747.06,1747.06
65.4,1720.59,1720.59
65,1747.06,1747.06
64.6,1752.94,1752.94
64.2,1800,1800
63.8,1626.47,1626.47
63.4,1652.94,1652.94
63,1847.06,1847.06
62.6,1626.47,1626.47
62.2,1773.53,1773.53
61.8,1855.88,1855.88
61.4,1732.35,1732.35
61,1891.18,1891.18
60.6,1691.18,1691.18
60.2,1835.29,1835.29
59.8,1732.35,1732.35
59.4,1844.12,1844.12
59,1711.76,1711.76
58.6,1817.65,1817.65
58.2,1873.53,1873.53
57.8,1726.47,1726.47
57.4,1867.65,1867.65
57,1858.82,1858.82
56.6,1820.59,1820.59
56.2,1847.06,1847.06
55.8,1776.47,1776.47
55.4,1702.94,1702.94
55,1905.88,1905.88
54.6,1847.06,1847.06
54.2,1920.59,1920.59
53.8,1705.88,1705.88
53.4,1823.53,1823.53
53,1991.18,1991.18
52.6,1811.76,1811.76
52.2,1847.06,1847.06
51.8,1744.12,1744.12
51.4,1729.41,1729.41
51,1688.24,1688.24
50.6,1808.82,1808.82
50.2,1629.41,1629.41
49.8,1579.41,1579.41
49.4,1685.29,1685.29
49,1744.12,1744.12
48.6,1585.29,1585.29
48.2,1752.94,1752.94
47.8,1664.71,1664.71
47.4,1576.47,1576.47
47,1644.12,1644.12
46.6,1541.18,1541.18
46.2,1535.29,1535.29
45.8,1529.41,1529.41
45.4,1597.06,1597.06
45,1650,1650
44.6,1611.76,1611.76
44.2,1538.24,1538.24
43.8,1567.65,1567.65
43.4,1602.94,1602.94
43,1414.71,1414.71
42.6,1564.71,1564.71
42.2,1573.53,1573.53
41.8,1632.35,1632.35
41.4,1594.12,1594.12
41,1476.47,1476.47
40.6,1555.88,1555.88
40.2,1482.35,1482.35
39.8,1688.24,1688.24
39.4,1644.12,1644.12
39,1805.88,1805.88
38.6,1714.71,1714.71
38.2,1852.94,1852.94
37.8,1826.47,1826.47
37.4,2008.82,2008.82
37,2097.06,2097.06
36.6,2417.65,2417.65
36.2,2647.06,2647.06
35.8,2926.47,2926.47
35.4,2991.18,2991.18
35,2985.29,2985.29
34.6,3126.47,3126.47
34.2,3305.88,3305.88
33.8,3467.65,3467.65
33.4,3555.88,3555.88
33,3658.82,3658.82
32.6,3558.82,3558.82
32.2,3455.88,3455.88
31.8,3264.71,3264.71
31.4,2800,2800
31,2538.24,2538.24
30.6,2229.41,2229.41
30.2,2173.53,2173.53
29.8,1855.88,1855.88
29.4,1888.24,1888.24
29,1829.41,1829.41
28.6,1861.76,1861.76
28.2,1697.06,1697.06
27.8,1876.47,1876.47
27.4,1600,1600
27,1711.76,1711.76
26.6,1679.41,1679.41
26.2,1620.59,1620.59
25.8,1673.53,1673.53
25.4,1588.24,1588.24
25,1676.47,1676.47
24.6,1741.18,1741.18
24.2,1785.29,1785.29
23.8,1488.24,1488.24
23.4,1417.65,1417.65
23,1385.29,1385.29
22.6,1182.35,1182.35
22.2,1082.35,1082.35
21.8,1114.71,1114.71
21.4,1023.53,1023.53
21,1017.65,1017.65
20.6,991.176,991.176
20.2,929.412,929.412
19.8,1100,1100
19.4,1297.06,1297.06
19,1447.06,1447.06
18.6,1567.65,1567.65
18.2,1970.59,1970.59
17.8,1958.82,1958.82
17.4,1735.29,1735.29
17,1517.65,1517.65
16.6,1526.47,1526.47
16.2,1473.53,1473.53
15.8,1394.12,1394.12
15.4,1482.35,1482.35
15,1670.59,1670.59
14.6,1820.59,1820.59
14.2,1767.65,1767.65
13.8,1629.41,1629.41
13.4,1391.18,1391.18
13,1100,1100
12.6,1061.76,1061.76
12.2,1167.65,1167.65
11.8,1438.24,1438.24
11.4,1732.35,1732.35
11,1973.53,1973.53
10.6,2041.18,2041.18
10.2,2285.29,2285.29
9.8,2135.29,2135.29
9.4,2326.47,2326.47
9,1829.41,1829.41
8.6,1279.41,1279.41
8.2,914.706,914.706
7.8,794.118,794.118
7.4,664.706,664.706
7,661.765,661.765
6.6,720.588,720.588
6.2,791.176,791.176
5.8,797.059,797.059
5.4,797.059,797.059
5,708.824,708.824
4.6,655.882,655.882
4.2,594.118,594.118
3.8,394.118,394.118
3.4,423.529,423.529
3,364.706,364.706
2.6,441.176,441.176
2.2,605.882,605.882
1.8,529.412,529.412
1.4,458.824,458.824
1,297.059,297.059
0.6,311.765,311.765
0.2,247.059,247.059
-0.2,220.588,220.588
-0.6,188.235,188.235
-1,161.765,161.765
-1.4,185.294,185.294
-1.8,158.824,158.824
