,
,
Characteristic Energy eV,1486.6
BE_Sur1 1,CPS_Sur1 1
1398.8,64882.4
1398.4,64867.6
1398,64291.2
1397.6,65250
1397.2,64000
1396.8,63938.2
1396.4,64811.8
1396,63235.3
1395.6,64244.1
1395.2,64332.4
1394.8,63888.2
1394.4,63770.6
1394,63608.8
1393.6,62832.4
1393.2,64129.4
1392.8,63408.8
1392.4,63073.5
1392,62947.1
1391.6,62894.1
1391.2,62958.8
1390.8,62514.7
1390.4,62326.5
1390,61800
1389.6,62529.4
1389.2,62417.6
1388.8,61908.8
1388.4,61388.2
1388,62458.8
1387.6,61558.8
1387.2,62088.2
1386.8,61414.7
1386.4,61411.8
1386,61129.4
1385.6,61505.9
1385.2,60779.4
1384.8,61044.1
1384.4,61179.4
1384,61541.2
1383.6,60317.6
1383.2,60029.4
1382.8,59552.9
1382.4,60405.9
1382,59958.8
1381.6,59788.2
1381.2,60411.8
1380.8,59605.9
1380.4,60891.2
1380,59258.8
1379.6,58732.4
1379.2,59102.9
1378.8,58700
1378.4,58655.9
1378,59067.6
1377.6,58332.4
1377.2,58682.4
1376.8,58888.2
1376.4,58376.5
1376,57532.4
1375.6,58247.1
1375.2,57711.8
1374.8,57197.1
1374.4,57964.7
1374,57405.9
1373.6,57605.9
1373.2,57979.4
1372.8,57476.5
1372.4,56279.4
1372,56667.6
1371.6,56917.6
1371.2,56914.7
1370.8,56220.6
1370.4,56288.2
1370,56670.6
1369.6,56376.5
1369.2,56276.5
1368.8,56532.4
1368.4,56226.5
1368,56650
1367.6,55855.9
1367.2,55470.6
1366.8,55988.2
1366.4,54882.4
1366,55494.1
1365.6,55394.1
1365.2,55014.7
1364.8,55355.9
1364.4,54264.7
1364,55217.6
1363.6,54455.9
1363.2,54576.5
1362.8,54114.7
1362.4,54714.7
1362,54332.4
1361.6,53400
1361.2,53691.2
1360.8,54855.9
1360.4,54364.7
1360,53761.8
1359.6,53620.6
1359.2,53829.4
1358.8,53544.1
1358.4,53244.1
1358,54273.5
1357.6,52711.8
1357.2,52914.7
1356.8,52714.7
1356.4,53520.6
1356,53097.1
1355.6,52111.8
1355.2,52464.7
1354.8,52552.9
1354.4,52029.4
1354,52258.8
1353.6,51344.1
1353.2,51070.6
1352.8,52141.2
1352.4,51950
1352,51544.1
1351.6,51297.1
1351.2,51855.9
1350.8,51188.2
1350.4,51097.1
1350,51041.2
1349.6,51197.1
1349.2,51047.1
1348.8,51158.8
1348.4,50823.5
1348,50676.5
1347.6,50264.7
1347.2,50450
1346.8,50317.6
1346.4,50564.7
1346,50305.9
1345.6,49585.3
1345.2,50808.8
1344.8,49991.2
1344.4,49255.9
1344,50200
1343.6,49573.5
1343.2,49135.3
1342.8,50288.2
1342.4,49408.8
1342,49344.1
1341.6,50220.6
1341.2,49188.2
1340.8,49397.1
1340.4,49738.2
1340,49061.8
1339.6,48876.5
1339.2,49470.6
1338.8,49058.8
1338.4,48405.9
1338,48576.5
1337.6,47597.1
1337.2,48052.9
1336.8,48144.1
1336.4,47476.5
1336,47361.8
1335.6,48373.5
1335.2,46923.5
1334.8,47661.8
1334.4,46929.4
1334,47232.4
1333.6,47014.7
1333.2,46632.4
1332.8,46779.4
1332.4,46391.2
1332,46408.8
1331.6,45914.7
1331.2,46532.4
1330.8,45626.5
1330.4,45388.2
1330,45711.8
1329.6,45438.2
1329.2,45594.1
1328.8,45508.8
1328.4,45282.4
1328,45176.5
1327.6,45329.4
1327.2,45264.7
1326.8,44494.1
1326.4,44902.9
1326,45614.7
1325.6,44726.5
1325.2,44811.8
1324.8,44211.8
1324.4,43658.8
1324,43811.8
1323.6,44252.9
1323.2,44770.6
1322.8,44852.9
1322.4,45258.8
1322,43997.1
1321.6,44114.7
1321.2,44347.1
1320.8,44279.4
1320.4,44094.1
1320,43408.8
1319.6,44126.5
1319.2,43302.9
1318.8,44088.2
1318.4,43647.1
1318,43252.9
1317.6,43991.2
1317.2,43382.4
1316.8,43461.8
1316.4,43211.8
1316,42994.1
1315.6,43367.6
1315.2,42285.3
1314.8,42708.8
1314.4,42205.9
1314,42002.9
1313.6,42447.1
1313.2,42285.3
1312.8,43038.2
1312.4,42532.4
1312,42347.1
1311.6,42032.4
1311.2,42397.1
1310.8,42170.6
1310.4,42288.2
1310,42085.3
1309.6,41441.2
1309.2,41847.1
1308.8,41958.8
1308.4,42758.8
1308,41776.5
1307.6,41720.6
1307.2,41935.3
1306.8,42394.1
1306.4,41635.3
1306,41864.7
1305.6,41644.1
1305.2,41452.9
1304.8,41602.9
1304.4,41858.8
1304,41079.4
1303.6,41920.6
1303.2,41350
1302.8,41079.4
1302.4,41655.9
1302,41567.6
1301.6,41455.9
1301.2,41750
1300.8,41473.5
1300.4,41432.4
1300,40982.4
1299.6,41197.1
1299.2,41279.4
1298.8,40952.9
1298.4,42047.1
1298,40526.5
1297.6,40876.5
1297.2,41205.9
1296.8,41035.3
1296.4,40488.2
1296,41011.8
1295.6,40685.3
1295.2,41450
1294.8,40591.2
1294.4,40673.5
1294,40932.4
1293.6,41152.9
1293.2,41161.8
1292.8,40344.1
1292.4,39479.4
1292,40850
1291.6,40411.8
1291.2,40582.4
1290.8,39950
1290.4,39988.2
1290,39970.6
1289.6,40297.1
1289.2,40447.1
1288.8,40491.2
1288.4,39944.1
1288,40661.8
1287.6,39570.6
1287.2,40635.3
1286.8,40308.8
1286.4,40717.6
1286,40111.8
1285.6,40497.1
1285.2,40514.7
1284.8,40147.1
1284.4,40623.5
1284,40044.1
1283.6,40176.5
1283.2,40473.5
1282.8,40100
1282.4,40241.2
1282,40076.5
1281.6,39458.8
1281.2,39952.9
1280.8,40214.7
1280.4,39970.6
1280,40597.1
1279.6,40282.4
1279.2,39505.9
1278.8,39779.4
1278.4,40155.9
1278,39400
1277.6,39832.4
1277.2,39588.2
1276.8,39676.5
1276.4,39973.5
1276,40041.2
1275.6,39964.7
1275.2,39641.2
1274.8,39817.6
1274.4,40044.1
1274,39950
1273.6,39697.1
1273.2,39832.4
1272.8,39735.3
1272.4,39200
1272,39929.4
1271.6,40294.1
1271.2,39076.5
1270.8,40552.9
1270.4,39223.5
1270,39482.4
1269.6,39858.8
1269.2,39679.4
1268.8,39855.9
1268.4,39405.9
1268,39241.2
1267.6,39244.1
1267.2,39755.9
1266.8,40105.9
1266.4,39391.2
1266,40820.6
1265.6,39288.2
1265.2,39652.9
1264.8,39511.8
1264.4,39558.8
1264,39947.1
1263.6,39444.1
1263.2,40011.8
1262.8,39458.8
1262.4,39147.1
1262,39670.6
1261.6,39482.4
1261.2,39547.1
1260.8,39320.6
1260.4,39255.9
1260,39338.2
1259.6,39723.5
1259.2,39697.1
1258.8,39782.4
1258.4,39805.9
1258,39082.4
1257.6,39814.7
1257.2,39244.1
1256.8,39761.8
1256.4,39291.2
1256,39782.4
1255.6,39600
1255.2,39305.9
1254.8,39932.4
1254.4,39379.4
1254,39661.8
1253.6,39344.1
1253.2,39744.1
1252.8,39838.2
1252.4,40088.2
1252,39444.1
1251.6,39147.1
1251.2,40223.5
1250.8,40014.7
1250.4,39450
1250,40085.3
1249.6,40005.9
1249.2,40044.1
1248.8,40147.1
1248.4,41311.8
1248,40458.8
1247.6,40094.1
1247.2,39738.2
1246.8,40047.1
1246.4,39673.5
1246,40214.7
1245.6,39682.4
1245.2,39935.3
1244.8,39885.3
1244.4,39605.9
1244,40185.3
1243.6,40473.5
1243.2,40182.4
1242.8,40629.4
1242.4,39764.7
1242,39644.1
1241.6,39894.1
1241.2,39447.1
1240.8,39002.9
1240.4,40167.6
1240,39491.2
1239.6,40441.2
1239.2,40214.7
1238.8,39655.9
1238.4,39905.9
1238,39591.2
1237.6,39802.9
1237.2,39488.2
1236.8,39914.7
1236.4,39808.8
1236,39676.5
1235.6,40132.4
1235.2,40232.4
1234.8,39570.6
1234.4,39258.8
1234,39411.8
1233.6,40005.9
1233.2,39538.2
1232.8,39864.7
1232.4,40158.8
1232,40047.1
1231.6,40144.1
1231.2,40111.8
1230.8,40279.4
1230.4,40961.8
1230,40138.2
1229.6,40335.3
1229.2,40241.2
1228.8,41038.2
1228.4,41082.4
1228,40458.8
1227.6,40429.4
1227.2,40900
1226.8,39950
1226.4,40494.1
1226,41461.8
1225.6,40952.9
1225.2,40438.2
1224.8,40279.4
1224.4,40520.6
1224,40767.6
1223.6,40564.7
1223.2,40564.7
1222.8,40967.6
1222.4,40002.9
1222,40667.6
1221.6,39908.8
1221.2,40302.9
1220.8,40197.1
1220.4,40111.8
1220,39905.9
1219.6,38794.1
1219.2,39455.9
1218.8,38561.8
1218.4,39423.5
1218,39408.8
1217.6,39238.2
1217.2,39264.7
1216.8,38055.9
1216.4,38761.8
1216,38294.1
1215.6,38214.7
1215.2,38497.1
1214.8,38270.6
1214.4,37673.5
1214,37729.4
1213.6,37394.1
1213.2,37588.2
1212.8,37832.4
1212.4,37232.4
1212,37720.6
1211.6,37952.9
1211.2,37173.5
1210.8,37555.9
1210.4,37188.2
1210,37032.4
1209.6,37529.4
1209.2,37600
1208.8,37526.5
1208.4,37435.3
1208,38050
1207.6,37214.7
1207.2,37170.6
1206.8,36873.5
1206.4,37308.8
1206,37020.6
1205.6,37750
1205.2,37323.5
1204.8,37702.9
1204.4,37197.1
1204,37850
1203.6,36520.6
1203.2,37870.6
1202.8,36852.9
1202.4,37650
1202,37341.2
1201.6,37835.3
1201.2,37200
1200.8,37950
1200.4,36676.5
1200,37114.7
1199.6,37264.7
1199.2,37314.7
1198.8,38117.6
1198.4,37776.5
1198,36867.6
1197.6,37247.1
1197.2,37723.5
1196.8,38138.2
1196.4,37641.2
1196,37376.5
1195.6,37658.8
1195.2,38044.1
1194.8,38129.4
1194.4,37573.5
1194,37988.2
1193.6,37517.6
1193.2,37976.5
1192.8,37988.2
1192.4,37432.4
1192,37997.1
1191.6,37870.6
1191.2,37958.8
1190.8,37982.4
1190.4,37785.3
1190,37979.4
1189.6,37529.4
1189.2,38208.8
1188.8,38379.4
1188.4,37173.5
1188,37747.1
1187.6,38511.8
1187.2,38320.6
1186.8,38523.5
1186.4,38029.4
1186,37588.2
1185.6,37791.2
1185.2,37932.4
1184.8,37935.3
1184.4,38582.4
1184,38017.6
1183.6,37814.7
1183.2,38485.3
1182.8,38511.8
1182.4,38176.5
1182,38970.6
1181.6,38150
1181.2,38376.5
1180.8,38179.4
1180.4,38408.8
1180,38702.9
1179.6,38497.1
1179.2,38300
1178.8,38423.5
1178.4,38191.2
1178,38402.9
1177.6,38338.2
1177.2,38482.4
1176.8,38194.1
1176.4,38667.6
1176,38270.6
1175.6,37788.2
1175.2,38761.8
1174.8,38135.3
1174.4,38426.5
1174,38417.6
1173.6,38423.5
1173.2,39408.8
1172.8,38608.8
1172.4,38679.4
1172,38567.6
1171.6,38500
1171.2,38541.2
1170.8,38044.1
1170.4,38582.4
1170,39158.8
1169.6,38235.3
1169.2,38994.1
1168.8,38697.1
1168.4,39179.4
1168,38861.8
1167.6,38523.5
1167.2,38688.2
1166.8,39011.8
1166.4,39997.1
1166,39352.9
1165.6,39152.9
1165.2,39288.2
1164.8,39823.5
1164.4,39526.5
1164,39202.9
1163.6,38935.3
1163.2,38438.2
1162.8,39294.1
1162.4,39467.6
1162,39561.8
1161.6,38794.1
1161.2,39776.5
1160.8,38867.6
1160.4,38973.5
1160,39035.3
1159.6,39400
1159.2,39552.9
1158.8,39752.9
1158.4,38982.4
1158,39600
1157.6,39376.5
1157.2,39208.8
1156.8,39464.7
1156.4,39494.1
1156,39594.1
1155.6,39241.2
1155.2,39455.9
1154.8,39255.9
1154.4,40114.7
1154,39773.5
1153.6,39744.1
1153.2,39832.4
1152.8,39329.4
1152.4,39076.5
1152,39379.4
1151.6,39576.5
1151.2,39900
1150.8,39670.6
1150.4,39711.8
1150,39652.9
1149.6,39673.5
1149.2,39900
1148.8,40511.8
1148.4,39644.1
1148,40408.8
1147.6,39714.7
1147.2,39897.1
1146.8,40605.9
1146.4,40258.8
1146,39864.7
1145.6,39702.9
1145.2,40200
1144.8,40038.2
1144.4,40473.5
1144,40508.8
1143.6,40550
1143.2,40900
1142.8,40052.9
1142.4,40823.5
1142,41129.4
1141.6,41329.4
1141.2,40358.8
1140.8,40600
1140.4,40655.9
1140,40082.4
1139.6,40261.8
1139.2,40420.6
1138.8,40664.7
1138.4,40535.3
1138,41320.6
1137.6,39876.5
1137.2,40011.8
1136.8,40173.5
1136.4,40582.4
1136,40644.1
1135.6,40623.5
1135.2,41491.2
1134.8,41217.6
1134.4,41600
1134,41323.5
1133.6,41070.6
1133.2,40917.6
1132.8,40905.9
1132.4,41550
1132,41182.4
1131.6,40485.3
1131.2,41197.1
1130.8,40405.9
1130.4,41076.5
1130,41197.1
1129.6,41144.1
1129.2,41429.4
1128.8,41329.4
1128.4,41294.1
1128,41291.2
1127.6,41197.1
1127.2,42388.2
1126.8,41188.2
1126.4,41688.2
1126,41600
1125.6,41111.8
1125.2,41714.7
1124.8,40676.5
1124.4,41417.6
1124,41423.5
1123.6,41370.6
1123.2,41473.5
1122.8,41097.1
1122.4,41344.1
1122,41855.9
1121.6,41700
1121.2,41008.8
1120.8,41550
1120.4,41500
1120,41835.3
1119.6,40985.3
1119.2,42026.5
1118.8,41550
1118.4,41611.8
1118,41644.1
1117.6,41652.9
1117.2,42011.8
1116.8,41744.1
1116.4,41900
1116,41676.5
1115.6,42397.1
1115.2,42352.9
1114.8,41885.3
1114.4,42547.1
1114,42017.6
1113.6,41847.1
1113.2,42511.8
1112.8,42632.4
1112.4,42267.6
1112,41832.4
1111.6,42032.4
1111.2,42397.1
1110.8,42038.2
1110.4,42238.2
1110,42417.6
1109.6,43032.4
1109.2,42455.9
1108.8,43223.5
1108.4,42838.2
1108,43050
1107.6,42302.9
1107.2,43291.2
1106.8,42767.6
1106.4,42758.8
1106,42202.9
1105.6,43176.5
1105.2,43264.7
1104.8,42644.1
1104.4,42517.6
1104,42394.1
1103.6,42785.3
1103.2,43311.8
1102.8,42982.4
1102.4,43944.1
1102,42705.9
1101.6,42782.4
1101.2,42720.6
1100.8,42202.9
1100.4,42423.5
1100,43085.3
1099.6,42455.9
1099.2,42282.4
1098.8,42279.4
1098.4,42652.9
1098,42629.4
1097.6,42820.6
1097.2,42620.6
1096.8,42673.5
1096.4,43644.1
1096,43861.8
1095.6,42497.1
1095.2,43361.8
1094.8,43100
1094.4,43391.2
1094,43194.1
1093.6,43400
1093.2,43485.3
1092.8,43447.1
1092.4,43529.4
1092,44076.5
1091.6,43838.2
1091.2,43847.1
1090.8,43352.9
1090.4,43176.5
1090,44294.1
1089.6,42958.8
1089.2,43076.5
1088.8,43144.1
1088.4,43991.2
1088,42944.1
1087.6,43650
1087.2,43470.6
1086.8,42879.4
1086.4,43391.2
1086,44120.6
1085.6,43385.3
1085.2,43467.6
1084.8,43361.8
1084.4,43750
1084,43591.2
1083.6,42579.4
1083.2,43394.1
1082.8,43297.1
1082.4,43305.9
1082,43217.6
1081.6,42705.9
1081.2,43479.4
1080.8,42829.4
1080.4,42500
1080,43367.6
1079.6,42767.6
1079.2,43132.4
1078.8,42588.2
1078.4,42705.9
1078,43044.1
1077.6,42958.8
1077.2,42970.6
1076.8,42514.7
1076.4,43729.4
1076,42761.8
1075.6,43108.8
1075.2,43455.9
1074.8,43758.8
1074.4,43452.9
1074,43355.9
1073.6,44570.6
1073.2,45694.1
1072.8,47041.2
1072.4,50679.4
1072,54661.8
1071.6,59155.9
1071.2,62147.1
1070.8,63023.5
1070.4,59120.6
1070,54011.8
1069.6,48744.1
1069.2,45879.4
1068.8,44579.4
1068.4,43591.2
1068,44255.9
1067.6,43129.4
1067.2,43641.2
1066.8,43841.2
1066.4,43664.7
1066,43102.9
1065.6,43029.4
1065.2,43676.5
1064.8,42791.2
1064.4,43791.2
1064,43705.9
1063.6,42782.4
1063.2,43047.1
1062.8,42976.5
1062.4,43555.9
1062,42726.5
1061.6,43897.1
1061.2,43258.8
1060.8,43338.2
1060.4,43220.6
1060,43520.6
1059.6,42988.2
1059.2,43552.9
1058.8,44223.5
1058.4,43173.5
1058,43908.8
1057.6,43582.4
1057.2,43652.9
1056.8,43373.5
1056.4,43685.3
1056,43752.9
1055.6,43870.6
1055.2,44147.1
1054.8,43891.2
1054.4,44261.8
1054,43961.8
1053.6,43841.2
1053.2,43679.4
1052.8,43332.4
1052.4,43779.4
1052,44614.7
1051.6,44785.3
1051.2,43941.2
1050.8,44135.3
1050.4,44114.7
1050,44197.1
1049.6,44382.4
1049.2,44135.3
1048.8,44794.1
1048.4,44870.6
1048,44444.1
1047.6,43911.8
1047.2,43929.4
1046.8,44535.3
1046.4,44900
1046,45267.6
1045.6,45132.4
1045.2,45588.2
1044.8,45905.9
1044.4,45817.6
1044,45405.9
1043.6,45235.3
1043.2,45535.3
1042.8,44685.3
1042.4,45294.1
1042,44835.3
1041.6,44973.5
1041.2,45038.2
1040.8,45335.3
1040.4,44844.1
1040,45229.4
1039.6,45038.2
1039.2,44932.4
1038.8,45373.5
1038.4,44785.3
1038,44952.9
1037.6,45711.8
1037.2,44594.1
1036.8,45458.8
1036.4,45132.4
1036,45432.4
1035.6,45176.5
1035.2,45273.5
1034.8,45529.4
1034.4,45197.1
1034,45811.8
1033.6,46329.4
1033.2,46111.8
1032.8,45623.5
1032.4,46002.9
1032,46061.8
1031.6,44661.8
1031.2,45985.3
1030.8,45964.7
1030.4,46182.4
1030,45591.2
1029.6,45902.9
1029.2,46191.2
1028.8,45800
1028.4,45138.2
1028,45841.2
1027.6,45961.8
1027.2,45385.3
1026.8,45147.1
1026.4,46829.4
1026,45876.5
1025.6,46191.2
1025.2,47052.9
1024.8,46350
1024.4,46397.1
1024,46400
1023.6,46908.8
1023.2,47147.1
1022.8,47211.8
1022.4,47647.1
1022,47814.7
1021.6,48758.8
1021.2,48879.4
1020.8,48017.6
1020.4,47279.4
1020,46950
1019.6,47041.2
1019.2,47161.8
1018.8,46802.9
1018.4,46694.1
1018,46444.1
1017.6,46867.6
1017.2,47350
1016.8,46338.2
1016.4,47052.9
1016,47152.9
1015.6,47182.4
1015.2,46726.5
1014.8,47326.5
1014.4,47235.3
1014,47752.9
1013.6,47544.1
1013.2,46555.9
1012.8,47455.9
1012.4,46608.8
1012,47023.5
1011.6,47567.6
1011.2,47379.4
1010.8,47532.4
1010.4,47817.6
1010,47858.8
1009.6,47573.5
1009.2,47329.4
1008.8,47582.4
1008.4,47947.1
1008,48067.6
1007.6,47852.9
1007.2,47885.3
1006.8,47770.6
1006.4,47961.8
1006,48297.1
1005.6,48847.1
1005.2,48729.4
1004.8,48982.4
1004.4,48438.2
1004,48885.3
1003.6,49373.5
1003.2,48894.1
1002.8,49185.3
1002.4,49073.5
1002,49026.5
1001.6,48941.2
1001.2,49426.5
1000.8,48761.8
1000.4,48850
1000,49773.5
999.6,49794.1
999.2,49714.7
998.8,48970.6
998.4,49308.8
998,49547.1
997.6,48994.1
997.2,49655.9
996.8,49485.3
996.4,49241.2
996,48861.8
995.6,49926.5
995.2,49191.2
994.8,48370.6
994.4,49652.9
994,48979.4
993.6,49205.9
993.2,49032.4
992.8,48908.8
992.4,49147.1
992,48832.4
991.6,48332.4
991.2,48947.1
990.8,48655.9
990.4,48705.9
990,49538.2
989.6,48985.3
989.2,49017.6
988.8,48667.6
988.4,48844.1
988,49138.2
987.6,48911.8
987.2,48558.8
986.8,48788.2
986.4,49194.1
986,48867.6
985.6,49400
985.2,49623.5
984.8,50229.4
984.4,49552.9
984,49161.8
983.6,50302.9
983.2,49473.5
982.8,50341.2
982.4,50508.8
982,50176.5
981.6,50141.2
981.2,50673.5
980.8,50470.6
980.4,51061.8
980,51823.5
979.6,51708.8
979.2,51779.4
978.8,52073.5
978.4,52391.2
978,52755.9
977.6,53697.1
977.2,53767.6
976.8,52823.5
976.4,53270.6
976,52261.8
975.6,52891.2
975.2,52794.1
974.8,51785.3
974.4,52479.4
974,52426.5
973.6,52220.6
973.2,52541.2
972.8,51032.4
972.4,51197.1
972,50944.1
971.6,51982.4
971.2,51329.4
970.8,50867.6
970.4,51000
970,50185.3
969.6,50552.9
969.2,50461.8
968.8,49708.8
968.4,49552.9
968,49873.5
967.6,48870.6
967.2,49405.9
966.8,48338.2
966.4,48364.7
966,48361.8
965.6,48532.4
965.2,48879.4
964.8,49002.9
964.4,48829.4
964,48608.8
963.6,48670.6
963.2,48338.2
962.8,47967.6
962.4,49023.5
962,48720.6
961.6,48879.4
961.2,48711.8
960.8,48438.2
960.4,48229.4
960,48414.7
959.6,48694.1
959.2,49094.1
958.8,48832.4
958.4,48473.5
958,48200
957.6,48538.2
957.2,48950
956.8,49173.5
956.4,49444.1
956,49114.7
955.6,48673.5
955.2,48673.5
954.8,48494.1
954.4,48747.1
954,49488.2
953.6,49147.1
953.2,49314.7
952.8,49302.9
952.4,49641.2
952,50073.5
951.6,49258.8
951.2,49270.6
950.8,49102.9
950.4,49697.1
950,49564.7
949.6,49188.2
949.2,49438.2
948.8,48632.4
948.4,49673.5
948,49567.6
947.6,49982.4
947.2,49670.6
946.8,50270.6
946.4,49250
946,49447.1
945.6,49555.9
945.2,49650
944.8,50911.8
944.4,49752.9
944,49923.5
943.6,50373.5
943.2,49176.5
942.8,50197.1
942.4,49982.4
942,50700
941.6,50167.6
941.2,50082.4
940.8,50629.4
940.4,51379.4
940,50029.4
939.6,50326.5
939.2,50135.3
938.8,50779.4
938.4,50561.8
938,49873.5
937.6,50676.5
937.2,50526.5
936.8,50897.1
936.4,50714.7
936,50905.9
935.6,50797.1
935.2,50247.1
934.8,50308.8
934.4,50679.4
934,51276.5
933.6,50432.4
933.2,50041.2
932.8,51308.8
932.4,50835.3
932,50900
931.6,51582.4
931.2,50700
930.8,51461.8
930.4,51867.6
930,52047.1
929.6,51847.1
929.2,50600
928.8,50761.8
928.4,51297.1
928,51452.9
927.6,52097.1
927.2,51094.1
926.8,51602.9
926.4,52002.9
926,51020.6
925.6,51382.4
925.2,51673.5
924.8,51735.3
924.4,52002.9
924,51791.2
923.6,51700
923.2,52182.4
922.8,52226.5
922.4,51385.3
922,51735.3
921.6,51444.1
921.2,52423.5
920.8,51750
920.4,52094.1
920,51738.2
919.6,52467.6
919.2,51632.4
918.8,52173.5
918.4,52502.9
918,52100
917.6,51673.5
917.2,52408.8
916.8,52373.5
916.4,52529.4
916,53185.3
915.6,52944.1
915.2,52250
914.8,53194.1
914.4,53044.1
914,52832.4
913.6,52788.2
913.2,52464.7
912.8,52700
912.4,52650
912,51920.6
911.6,52935.3
911.2,52682.4
910.8,53117.6
910.4,53302.9
910,53564.7
909.6,52726.5
909.2,53576.5
908.8,53444.1
908.4,53405.9
908,53332.4
907.6,53191.2
907.2,53738.2
906.8,53591.2
906.4,53132.4
906,53626.5
905.6,53402.9
905.2,53879.4
904.8,53388.2
904.4,54291.2
904,53041.2
903.6,54885.3
903.2,53520.6
902.8,54135.3
902.4,53732.4
902,54297.1
901.6,53305.9
901.2,53758.8
900.8,54302.9
900.4,54941.2
900,54300
899.6,53461.8
899.2,53800
898.8,54555.9
898.4,54447.1
898,54688.2
897.6,54605.9
897.2,53623.5
896.8,54014.7
896.4,55350
896,54029.4
895.6,54161.8
895.2,53920.6
894.8,54729.4
894.4,54238.2
894,54805.9
893.6,54517.6
893.2,54150
892.8,54650
892.4,54938.2
892,55161.8
891.6,55017.6
891.2,55155.9
890.8,54623.5
890.4,55867.6
890,55697.1
889.6,55714.7
889.2,54914.7
888.8,56035.3
888.4,55879.4
888,55485.3
887.6,55241.2
887.2,55526.5
886.8,55670.6
886.4,56444.1
886,55750
885.6,56214.7
885.2,55600
884.8,56829.4
884.4,55900
884,55252.9
883.6,57223.5
883.2,56132.4
882.8,56294.1
882.4,56152.9
882,57088.2
881.6,57052.9
881.2,55976.5
880.8,57147.1
880.4,56182.4
880,56847.1
879.6,57020.6
879.2,56373.5
878.8,57173.5
878.4,57002.9
878,56458.8
877.6,56673.5
877.2,57188.2
876.8,56655.9
876.4,57020.6
876,57111.8
875.6,57417.6
875.2,57135.3
874.8,56952.9
874.4,57200
874,57782.4
873.6,57267.6
873.2,57088.2
872.8,57829.4
872.4,57394.1
872,56882.4
871.6,57152.9
871.2,56970.6
870.8,57573.5
870.4,57820.6
870,57311.8
869.6,57117.6
869.2,57629.4
868.8,58052.9
868.4,58241.2
868,57129.4
867.6,57288.2
867.2,58102.9
866.8,58102.9
866.4,58770.6
866,58073.5
865.6,58473.5
865.2,58550
864.8,58100
864.4,58750
864,58897.1
863.6,59555.9
863.2,58967.6
862.8,59508.8
862.4,60250
862,59705.9
861.6,60558.8
861.2,60438.2
860.8,60679.4
860.4,61273.5
860,60473.5
859.6,60608.8
859.2,60338.2
858.8,60588.2
858.4,59814.7
858,60005.9
857.6,59570.6
857.2,59979.4
856.8,60358.8
856.4,60217.6
856,60147.1
855.6,60611.8
855.2,59844.1
854.8,59402.9
854.4,59685.3
854,60476.5
853.6,59582.4
853.2,60197.1
852.8,60105.9
852.4,60605.9
852,60067.6
851.6,60347.1
851.2,60379.4
850.8,59641.2
850.4,60226.5
850,60455.9
849.6,60002.9
849.2,59761.8
848.8,60085.3
848.4,59705.9
848,60423.5
847.6,59855.9
847.2,59676.5
846.8,59855.9
846.4,60447.1
846,60747.1
845.6,60220.6
845.2,58961.8
844.8,59744.1
844.4,59611.8
844,59711.8
843.6,60085.3
843.2,59555.9
842.8,60285.3
842.4,59305.9
842,60129.4
841.6,60061.8
841.2,60605.9
840.8,60358.8
840.4,60885.3
840,61447.1
839.6,61361.8
839.2,60794.1
838.8,62020.6
838.4,61364.7
838,62767.6
837.6,62805.9
837.2,64050
836.8,64314.7
836.4,64661.8
836,65032.4
835.6,65888.2
835.2,67129.4
834.8,67623.5
834.4,67694.1
834,67741.2
833.6,67985.3
833.2,68176.5
832.8,69050
832.4,67661.8
832,67391.2
831.6,65826.5
831.2,65835.3
830.8,65414.7
830.4,65820.6
830,64617.6
829.6,63820.6
829.2,63991.2
828.8,63602.9
828.4,63026.5
828,64141.2
827.6,64108.8
827.2,63582.4
826.8,63305.9
826.4,62923.5
826,63011.8
825.6,62041.2
825.2,62570.6
824.8,61161.8
824.4,61394.1
824,61305.9
823.6,60088.2
823.2,60641.2
822.8,60347.1
822.4,59555.9
822,60191.2
821.6,60414.7
821.2,59870.6
820.8,59814.7
820.4,59552.9
820,59244.1
819.6,60073.5
819.2,59547.1
818.8,59811.8
818.4,58785.3
818,60085.3
817.6,59641.2
817.2,60226.5
816.8,59723.5
816.4,59591.2
816,59523.5
815.6,59882.4
815.2,59885.3
814.8,59329.4
814.4,60355.9
814,60291.2
813.6,59826.5
813.2,60138.2
812.8,59920.6
812.4,60285.3
812,60255.9
811.6,59970.6
811.2,60426.5
810.8,59847.1
810.4,60523.5
810,60194.1
809.6,60591.2
809.2,59805.9
808.8,60608.8
808.4,60676.5
808,60485.3
807.6,60017.6
807.2,59814.7
806.8,60685.3
806.4,61108.8
806,61055.9
805.6,61323.5
805.2,60302.9
804.8,60614.7
804.4,60264.7
804,60758.8
803.6,61050
803.2,60838.2
802.8,59835.3
802.4,60570.6
802,60985.3
801.6,60864.7
801.2,60832.4
800.8,60714.7
800.4,61235.3
800,60850
799.6,61141.2
799.2,60617.6
798.8,60791.2
798.4,61800
798,62032.4
797.6,62241.2
797.2,61376.5
796.8,61532.4
796.4,61241.2
796,62161.8
795.6,61550
795.2,62108.8
794.8,62088.2
794.4,62494.1
794,62000
793.6,61811.8
793.2,61664.7
792.8,61770.6
792.4,61241.2
792,62170.6
791.6,61264.7
791.2,61967.6
790.8,62897.1
790.4,62523.5
790,62214.7
789.6,61885.3
789.2,63420.6
788.8,62470.6
788.4,61855.9
788,62432.4
787.6,62323.5
787.2,61932.4
786.8,61732.4
786.4,63052.9
786,62273.5
785.6,62464.7
785.2,62158.8
784.8,62464.7
784.4,63176.5
784,63514.7
783.6,62947.1
783.2,62976.5
782.8,63388.2
782.4,62770.6
782,62508.8
781.6,63761.8
781.2,63570.6
780.8,62908.8
780.4,63655.9
780,62908.8
779.6,63338.2
779.2,63055.9
778.8,63379.4
778.4,63791.2
778,63047.1
777.6,62973.5
777.2,63208.8
776.8,63585.3
776.4,63561.8
776,63494.1
775.6,63641.2
775.2,64191.2
774.8,63544.1
774.4,63982.4
774,63735.3
773.6,64058.8
773.2,64108.8
772.8,64738.2
772.4,65061.8
772,64114.7
771.6,64588.2
771.2,64702.9
770.8,63679.4
770.4,64164.7
770,64538.2
769.6,63641.2
769.2,64035.3
768.8,63888.2
768.4,64461.8
768,65020.6
767.6,64935.3
767.2,64350
766.8,64585.3
766.4,65041.2
766,65438.2
765.6,65982.4
765.2,65464.7
764.8,64894.1
764.4,65911.8
764,66273.5
763.6,65867.6
763.2,66829.4
762.8,66491.2
762.4,66150
762,67529.4
761.6,67267.6
761.2,67297.1
760.8,66394.1
760.4,65826.5
760,66447.1
759.6,66300
759.2,65908.8
758.8,66352.9
758.4,66379.4
758,65517.6
757.6,66067.6
757.2,66167.6
756.8,66576.5
756.4,66120.6
756,65785.3
755.6,65744.1
755.2,65720.6
754.8,65888.2
754.4,65761.8
754,65964.7
753.6,65723.5
753.2,65400
752.8,65408.8
752.4,64952.9
752,65476.5
751.6,65338.2
751.2,65000
750.8,65711.8
750.4,66155.9
750,65241.2
749.6,65482.4
749.2,65473.5
748.8,65741.2
748.4,65273.5
748,65032.4
747.6,65600
747.2,65538.2
746.8,65038.2
746.4,66358.8
746,65644.1
745.6,66388.2
745.2,65873.5
744.8,65150
744.4,65005.9
744,65835.3
743.6,66079.4
743.2,65873.5
742.8,65988.2
742.4,66247.1
742,66832.4
741.6,66332.4
741.2,66179.4
740.8,66067.6
740.4,66005.9
740,66679.4
739.6,65964.7
739.2,66508.8
738.8,66726.5
738.4,66879.4
738,67202.9
737.6,67017.6
737.2,66608.8
736.8,66647.1
736.4,66523.5
736,66982.4
735.6,66838.2
735.2,67755.9
734.8,67697.1
734.4,66405.9
734,67052.9
733.6,67002.9
733.2,68155.9
732.8,67511.8
732.4,67770.6
732,66788.2
731.6,66905.9
731.2,67426.5
730.8,67426.5
730.4,67382.4
730,67735.3
729.6,67220.6
729.2,67817.6
728.8,67941.2
728.4,68076.5
728,68067.6
727.6,67214.7
727.2,68629.4
726.8,67667.6
726.4,67767.6
726,68029.4
725.6,68002.9
725.2,68417.6
724.8,68870.6
724.4,67664.7
724,68805.9
723.6,68467.6
723.2,68094.1
722.8,68008.8
722.4,69161.8
722,68267.6
721.6,69311.8
721.2,69232.4
720.8,69314.7
720.4,69282.4
720,70347.1
719.6,69655.9
719.2,69767.6
718.8,69532.4
718.4,70711.8
718,70908.8
717.6,71264.7
717.2,70402.9
716.8,70138.2
716.4,70108.8
716,70132.4
715.6,70623.5
715.2,69397.1
714.8,70479.4
714.4,70458.8
714,70605.9
713.6,70314.7
713.2,70802.9
712.8,70147.1
712.4,70505.9
712,70682.4
711.6,71000
711.2,69879.4
710.8,70920.6
710.4,69911.8
710,70358.8
709.6,70208.8
709.2,70126.5
708.8,70341.2
708.4,69932.4
708,71047.1
707.6,70838.2
707.2,71782.4
706.8,70864.7
706.4,70526.5
706,70552.9
705.6,69976.5
705.2,70676.5
704.8,70073.5
704.4,70532.4
704,69755.9
703.6,69200
703.2,70026.5
702.8,70020.6
702.4,70602.9
702,70000
701.6,70694.1
701.2,70452.9
700.8,69655.9
700.4,69452.9
700,69652.9
699.6,68917.6
699.2,68544.1
698.8,69123.5
698.4,69161.8
698,68820.6
697.6,68673.5
697.2,68032.4
696.8,69067.6
696.4,68802.9
696,69079.4
695.6,68761.8
695.2,68785.3
694.8,69161.8
694.4,68341.2
694,68405.9
693.6,67717.6
693.2,68629.4
692.8,69038.2
692.4,68308.8
692,69600
691.6,70532.4
691.2,71397.1
690.8,73370.6
690.4,76173.5
690,84755.9
689.6,99552.9
689.2,115179
688.8,133135
688.4,142603
688,136315
687.6,118606
687.2,99585.3
686.8,85264.7
686.4,77255.9
686,73173.5
685.6,71770.6
685.2,70638.2
684.8,70658.8
684.4,70885.3
684,70297.1
683.6,69667.6
683.2,69720.6
682.8,70879.4
682.4,68926.5
682,68570.6
681.6,68067.6
681.2,68979.4
680.8,68450
680.4,68300
680,67385.3
679.6,69241.2
679.2,68411.8
678.8,69000
678.4,69550
678,69052.9
677.6,68776.5
677.2,68294.1
676.8,68261.8
676.4,68473.5
676,68923.5
675.6,68811.8
675.2,68811.8
674.8,69405.9
674.4,69835.3
674,68979.4
673.6,69844.1
673.2,69435.3
672.8,69755.9
672.4,68567.6
672,69773.5
671.6,70085.3
671.2,69626.5
670.8,69744.1
670.4,70061.8
670,69947.1
669.6,70541.2
669.2,68982.4
668.8,69847.1
668.4,70508.8
668,69258.8
667.6,70047.1
667.2,70238.2
666.8,70411.8
666.4,70652.9
666,71352.9
665.6,70217.6
665.2,70705.9
664.8,70508.8
664.4,71202.9
664,70073.5
663.6,70708.8
663.2,70323.5
662.8,70497.1
662.4,70447.1
662,69791.2
661.6,70485.3
661.2,71258.8
660.8,70485.3
660.4,70417.6
660,69902.9
659.6,70464.7
659.2,70879.4
658.8,70808.8
658.4,70629.4
658,70555.9
657.6,69505.9
657.2,71432.4
656.8,70464.7
656.4,71191.2
656,71132.4
655.6,69973.5
655.2,70964.7
654.8,70973.5
654.4,71497.1
654,71620.6
653.6,71052.9
653.2,71444.1
652.8,70929.4
652.4,70826.5
652,71602.9
651.6,71605.9
651.2,71120.6
650.8,70558.8
650.4,70767.6
650,71464.7
649.6,72073.5
649.2,72035.3
648.8,72685.3
648.4,72920.6
648,71455.9
647.6,71911.8
647.2,72667.6
646.8,71797.1
646.4,73141.2
646,72682.4
645.6,72873.5
645.2,73967.6
644.8,73844.1
644.4,74044.1
644,74176.5
643.6,74208.8
643.2,74661.8
642.8,74858.8
642.4,75023.5
642,74900
641.6,73417.6
641.2,74770.6
640.8,73826.5
640.4,74485.3
640,73741.2
639.6,73479.4
639.2,74076.5
638.8,72844.1
638.4,72876.5
638,72970.6
637.6,71738.2
637.2,72397.1
636.8,72414.7
636.4,72194.1
636,71800
635.6,72738.2
635.2,71726.5
634.8,73276.5
634.4,70841.2
634,71811.8
633.6,71767.6
633.2,71697.1
632.8,71697.1
632.4,71482.4
632,71185.3
631.6,71673.5
631.2,71564.7
630.8,72258.8
630.4,72144.1
630,71258.8
629.6,70773.5
629.2,71341.2
628.8,71908.8
628.4,71255.9
628,72200
627.6,71947.1
627.2,71997.1
626.8,71470.6
626.4,72097.1
626,71444.1
625.6,71776.5
625.2,72658.8
624.8,72405.9
624.4,72802.9
624,72708.8
623.6,72097.1
623.2,72094.1
622.8,72997.1
622.4,72217.6
622,72188.2
621.6,71917.6
621.2,73723.5
620.8,71900
620.4,72264.7
620,72588.2
619.6,73011.8
619.2,72364.7
618.8,72523.5
618.4,72408.8
618,72929.4
617.6,72941.2
617.2,73035.3
616.8,72338.2
616.4,72544.1
616,72673.5
615.6,73141.2
615.2,74135.3
614.8,72676.5
614.4,73638.2
614,73585.3
613.6,72761.8
613.2,73088.2
612.8,73252.9
612.4,73450
612,72970.6
611.6,73738.2
611.2,73514.7
610.8,73600
610.4,73388.2
610,74558.8
609.6,74770.6
609.2,73776.5
608.8,74011.8
608.4,74697.1
608,74729.4
607.6,73408.8
607.2,73973.5
606.8,74361.8
606.4,73726.5
606,74579.4
605.6,74676.5
605.2,74391.2
604.8,74035.3
604.4,74679.4
604,73585.3
603.6,74785.3
603.2,75000
602.8,74414.7
602.4,75323.5
602,74835.3
601.6,74917.6
601.2,74241.2
600.8,74614.7
600.4,74802.9
600,75267.6
599.6,75229.4
599.2,74800
598.8,76123.5
598.4,74582.4
598,75820.6
597.6,74944.1
597.2,75529.4
596.8,74958.8
596.4,75676.5
596,75797.1
595.6,76188.2
595.2,74991.2
594.8,74879.4
594.4,75294.1
594,75591.2
593.6,75508.8
593.2,75747.1
592.8,76855.9
592.4,76661.8
592,76055.9
591.6,76120.6
591.2,76794.1
590.8,76544.1
590.4,75867.6
590,75773.5
589.6,76102.9
589.2,75814.7
588.8,76088.2
588.4,76205.9
588,76879.4
587.6,76176.5
587.2,76402.9
586.8,77705.9
586.4,76817.6
586,76902.9
585.6,77052.9
585.2,77335.3
584.8,77094.1
584.4,77270.6
584,77341.2
583.6,77067.6
583.2,76335.3
582.8,78088.2
582.4,77608.8
582,76779.4
581.6,77529.4
581.2,77550
580.8,76382.4
580.4,77944.1
580,77576.5
579.6,78511.8
579.2,78132.4
578.8,77385.3
578.4,78282.4
578,77835.3
577.6,77820.6
577.2,78567.6
576.8,77564.7
576.4,78473.5
576,77750
575.6,78526.5
575.2,77932.4
574.8,78373.5
574.4,78050
574,78702.9
573.6,78914.7
573.2,79294.1
572.8,78702.9
572.4,78000
572,78970.6
571.6,79011.8
571.2,78850
570.8,78464.7
570.4,78691.2
570,78041.2
569.6,79700
569.2,77750
568.8,78205.9
568.4,79361.8
568,79102.9
567.6,78564.7
567.2,78997.1
566.8,78964.7
566.4,78591.2
566,78614.7
565.6,78926.5
565.2,78961.8
564.8,79644.1
564.4,78914.7
564,79597.1
563.6,79508.8
563.2,79905.9
562.8,79355.9
562.4,79032.4
562,79214.7
561.6,78682.4
561.2,78900
560.8,78505.9
560.4,78400
560,78202.9
559.6,78682.4
559.2,78705.9
558.8,78641.2
558.4,78347.1
558,78008.8
557.6,77941.2
557.2,78976.5
556.8,79555.9
556.4,79397.1
556,78750
555.6,78944.1
555.2,79185.3
554.8,79250
554.4,79070.6
554,80052.9
553.6,79617.6
553.2,79167.6
552.8,80070.6
552.4,80202.9
552,81373.5
551.6,81217.6
551.2,82185.3
550.8,82135.3
550.4,82220.6
550,82600
549.6,83032.4
549.2,84097.1
548.8,85670.6
548.4,85985.3
548,88238.2
547.6,89355.9
547.2,90805.9
546.8,91126.5
546.4,91594.1
546,91832.4
545.6,91267.6
545.2,90594.1
544.8,87982.4
544.4,86958.8
544,84347.1
543.6,81955.9
543.2,80597.1
542.8,78426.5
542.4,79164.7
542,76382.4
541.6,76350
541.2,75776.5
540.8,75208.8
540.4,74600
540,73997.1
539.6,72761.8
539.2,72079.4
538.8,72608.8
538.4,71535.3
538,71888.2
537.6,73150
537.2,72182.4
536.8,72838.2
536.4,73123.5
536,73373.5
535.6,73614.7
535.2,74700
534.8,75470.6
534.4,76864.7
534,80717.6
533.6,86561.8
533.2,99170.6
532.8,113362
532.4,124635
532,123079
531.6,112174
531.2,99776.5
530.8,90179.4
530.4,84482.4
530,80326.5
529.6,75502.9
529.2,73188.2
528.8,71676.5
528.4,70317.6
528,69788.2
527.6,70205.9
527.2,69597.1
526.8,69626.5
526.4,69561.8
526,69579.4
525.6,70244.1
525.2,69494.1
524.8,69267.6
524.4,70323.5
524,70102.9
523.6,70058.8
523.2,70350
522.8,70394.1
522.4,70908.8
522,69508.8
521.6,69111.8
521.2,69938.2
520.8,70082.4
520.4,69691.2
520,70535.3
519.6,70132.4
519.2,69558.8
518.8,69885.3
518.4,70179.4
518,70082.4
517.6,70323.5
517.2,69597.1
516.8,69647.1
516.4,70026.5
516,70529.4
515.6,69670.6
515.2,70897.1
514.8,70405.9
514.4,70667.6
514,70455.9
513.6,70311.8
513.2,70502.9
512.8,69958.8
512.4,69964.7
512,70000
511.6,70273.5
511.2,70129.4
510.8,70773.5
510.4,70117.6
510,70582.4
509.6,69841.2
509.2,70905.9
508.8,71032.4
508.4,70408.8
508,70511.8
507.6,70732.4
507.2,70685.3
506.8,70250
506.4,71382.4
506,70238.2
505.6,71326.5
505.2,70508.8
504.8,70717.6
504.4,70702.9
504,70814.7
503.6,71350
503.2,70647.1
502.8,72694.1
502.4,71685.3
502,73379.4
501.6,73194.1
501.2,72882.4
500.8,72905.9
500.4,72667.6
500,73155.9
499.6,74108.8
499.2,74820.6
498.8,75455.9
498.4,75408.8
498,75876.5
497.6,77464.7
497.2,79005.9
496.8,79152.9
496.4,79035.3
496,77811.8
495.6,77391.2
495.2,77517.6
494.8,75976.5
494.4,75347.1
494,73573.5
493.6,72985.3
493.2,71776.5
492.8,71770.6
492.4,71488.2
492,71311.8
491.6,71458.8
491.2,70582.4
490.8,71267.6
490.4,71335.3
490,70388.2
489.6,70320.6
489.2,70494.1
488.8,70391.2
488.4,70047.1
488,70623.5
487.6,70894.1
487.2,71350
486.8,70979.4
486.4,70835.3
486,71073.5
485.6,70811.8
485.2,70835.3
484.8,71452.9
484.4,70770.6
484,70985.3
483.6,70917.6
483.2,70335.3
482.8,70038.2
482.4,72035.3
482,70650
481.6,71279.4
481.2,71391.2
480.8,71029.4
480.4,71632.4
480,71347.1
479.6,72226.5
479.2,71644.1
478.8,71720.6
478.4,72397.1
478,71667.6
477.6,71320.6
477.2,71979.4
476.8,71358.8
476.4,72805.9
476,72417.6
475.6,72938.2
475.2,73091.2
474.8,72041.2
474.4,72644.1
474,72850
473.6,72323.5
473.2,73138.2
472.8,72794.1
472.4,72323.5
472,72600
471.6,73952.9
471.2,72017.6
470.8,73120.6
470.4,72014.7
470,73291.2
469.6,72694.1
469.2,72961.8
468.8,72414.7
468.4,72441.2
468,71647.1
467.6,73411.8
467.2,72241.2
466.8,72414.7
466.4,73950
466,72841.2
465.6,73576.5
465.2,73564.7
464.8,72673.5
464.4,72752.9
464,72726.5
463.6,72935.3
463.2,73091.2
462.8,73426.5
462.4,73823.5
462,74011.8
461.6,73638.2
461.2,73358.8
460.8,73614.7
460.4,73232.4
460,73270.6
459.6,74902.9
459.2,74620.6
458.8,73820.6
458.4,74417.6
458,73138.2
457.6,73694.1
457.2,73958.8
456.8,73961.8
456.4,73658.8
456,74470.6
455.6,73829.4
455.2,73655.9
454.8,74702.9
454.4,74279.4
454,74697.1
453.6,74585.3
453.2,74991.2
452.8,75550
452.4,75188.2
452,75450
451.6,75929.4
451.2,75364.7
450.8,75867.6
450.4,74558.8
450,75235.3
449.6,74850
449.2,74732.4
448.8,75238.2
448.4,74797.1
448,75579.4
447.6,75044.1
447.2,75267.6
446.8,74582.4
446.4,75314.7
446,75791.2
445.6,75744.1
445.2,76770.6
444.8,77308.8
444.4,76861.8
444,76735.3
443.6,75658.8
443.2,75317.6
442.8,75288.2
442.4,75397.1
442,75276.5
441.6,75773.5
441.2,75505.9
440.8,75861.8
440.4,75394.1
440,75332.4
439.6,76029.4
439.2,76155.9
438.8,75294.1
438.4,75747.1
438,75911.8
437.6,75847.1
437.2,76276.5
436.8,75241.2
436.4,75932.4
436,75926.5
435.6,75335.3
435.2,76423.5
434.8,75879.4
434.4,77000
434,76147.1
433.6,76308.8
433.2,75891.2
432.8,76305.9
432.4,76594.1
432,76702.9
431.6,75711.8
431.2,76067.6
430.8,76047.1
430.4,77188.2
430,77029.4
429.6,76423.5
429.2,76761.8
428.8,77311.8
428.4,76455.9
428,77114.7
427.6,77108.8
427.2,77438.2
426.8,77952.9
426.4,76802.9
426,77576.5
425.6,77032.4
425.2,77635.3
424.8,77232.4
424.4,77102.9
424,77058.8
423.6,77805.9
423.2,77961.8
422.8,78370.6
422.4,77735.3
422,78564.7
421.6,78261.8
421.2,77332.4
420.8,77776.5
420.4,78029.4
420,78523.5
419.6,78264.7
419.2,77617.6
418.8,77982.4
418.4,77867.6
418,77776.5
417.6,77873.5
417.2,77685.3
416.8,78820.6
416.4,77602.9
416,77702.9
415.6,78750
415.2,77655.9
414.8,78200
414.4,79438.2
414,78367.6
413.6,77664.7
413.2,77970.6
412.8,77755.9
412.4,78629.4
412,78535.3
411.6,77938.2
411.2,78147.1
410.8,79055.9
410.4,77702.9
410,78300
409.6,77961.8
409.2,77741.2
408.8,78297.1
408.4,78258.8
408,79088.2
407.6,78952.9
407.2,79282.4
406.8,79291.2
406.4,78050
406,79285.3
405.6,77923.5
405.2,78405.9
404.8,78947.1
404.4,78685.3
404,79605.9
403.6,80014.7
403.2,81126.5
402.8,82991.2
402.4,82344.1
402,84100
401.6,81829.4
401.2,81194.1
400.8,80241.2
400.4,81414.7
400,81641.2
399.6,84979.4
399.2,86247.1
398.8,84885.3
398.4,83617.6
398,81358.8
397.6,80158.8
397.2,79505.9
396.8,79176.5
396.4,79135.3
396,78394.1
395.6,79100
395.2,79826.5
394.8,79476.5
394.4,78708.8
394,79102.9
393.6,79191.2
393.2,78888.2
392.8,79364.7
392.4,79329.4
392,79202.9
391.6,78608.8
391.2,79464.7
390.8,78623.5
390.4,79161.8
390,79535.3
389.6,80144.1
389.2,79623.5
388.8,80738.2
388.4,79282.4
388,79611.8
387.6,80308.8
387.2,80526.5
386.8,79932.4
386.4,80123.5
386,79941.2
385.6,79579.4
385.2,78732.4
384.8,79505.9
384.4,79838.2
384,79185.3
383.6,80226.5
383.2,79341.2
382.8,79532.4
382.4,79908.8
382,80350
381.6,80344.1
381.2,81123.5
380.8,80676.5
380.4,79673.5
380,79923.5
379.6,81035.3
379.2,79870.6
378.8,80750
378.4,80779.4
378,81679.4
377.6,80267.6
377.2,79770.6
376.8,80632.4
376.4,80835.3
376,80647.1
375.6,79788.2
375.2,80285.3
374.8,78814.7
374.4,80455.9
374,80264.7
373.6,78944.1
373.2,79514.7
372.8,79041.2
372.4,79117.6
372,79026.5
371.6,79447.1
371.2,79979.4
370.8,79832.4
370.4,78508.8
370,79335.3
369.6,79458.8
369.2,79079.4
368.8,78864.7
368.4,77694.1
368,78688.2
367.6,78108.8
367.2,77291.2
366.8,77226.5
366.4,78411.8
366,78229.4
365.6,77685.3
365.2,77632.4
364.8,77582.4
364.4,77444.1
364,77373.5
363.6,77611.8
363.2,77564.7
362.8,76950
362.4,78161.8
362,77408.8
361.6,77623.5
361.2,77455.9
360.8,77988.2
360.4,78755.9
360,78664.7
359.6,78291.2
359.2,79602.9
358.8,78747.1
358.4,79144.1
358,79900
357.6,81241.2
357.2,82964.7
356.8,83558.8
356.4,85944.1
356,87535.3
355.6,89820.6
355.2,93326.5
354.8,94641.2
354.4,98235.3
354,100974
353.6,104118
353.2,104253
352.8,103421
352.4,101156
352,98141.2
351.6,93570.6
351.2,89697.1
350.8,85594.1
350.4,82385.3
350,78873.5
349.6,76650
349.2,73682.4
348.8,72235.3
348.4,70420.6
348,69244.1
347.6,68111.8
347.2,67408.8
346.8,66823.5
346.4,65650
346,65120.6
345.6,64773.5
345.2,63973.5
344.8,63547.1
344.4,62452.9
344,62188.2
343.6,62502.9
343.2,61991.2
342.8,62870.6
342.4,61535.3
342,63397.1
341.6,62650
341.2,63152.9
340.8,63694.1
340.4,64991.2
340,66485.3
339.6,67126.5
339.2,68702.9
338.8,70867.6
338.4,74285.3
338,76947.1
337.6,80408.8
337.2,85441.2
336.8,90597.1
336.4,97552.9
336,102124
335.6,106591
335.2,108915
334.8,108709
334.4,106041
334,99452.9
333.6,92205.9
333.2,85311.8
332.8,79629.4
332.4,73588.2
332,68735.3
331.6,65317.6
331.2,62161.8
330.8,59888.2
330.4,58105.9
330,56923.5
329.6,54050
329.2,53085.3
328.8,51838.2
328.4,50800
328,50238.2
327.6,49885.3
327.2,48747.1
326.8,48876.5
326.4,48829.4
326,47938.2
325.6,47241.2
325.2,47376.5
324.8,46973.5
324.4,46741.2
324,46841.2
323.6,46676.5
323.2,46529.4
322.8,46123.5
322.4,46091.2
322,45955.9
321.6,46188.2
321.2,46402.9
320.8,46161.8
320.4,45794.1
320,46023.5
319.6,45382.4
319.2,45944.1
318.8,45391.2
318.4,45708.8
318,45220.6
317.6,44911.8
317.2,46300
316.8,45223.5
316.4,45350
316,45600
315.6,45894.1
315.2,45552.9
314.8,45214.7
314.4,46238.2
314,45352.9
313.6,45420.6
313.2,45550
312.8,45426.5
312.4,45820.6
312,45364.7
311.6,45738.2
311.2,45982.4
310.8,45400
310.4,45344.1
310,46076.5
309.6,45202.9
309.2,45723.5
308.8,45620.6
308.4,45858.8
308,46029.4
307.6,45226.5
307.2,45891.2
306.8,45917.6
306.4,45005.9
306,45579.4
305.6,45405.9
305.2,45723.5
304.8,45297.1
304.4,46332.4
304,46244.1
303.6,45117.6
303.2,45994.1
302.8,45438.2
302.4,45423.5
302,45476.5
301.6,45411.8
301.2,45176.5
300.8,44979.4
300.4,44711.8
300,44720.6
299.6,44711.8
299.2,44755.9
298.8,44555.9
298.4,44426.5
298,43944.1
297.6,43650
297.2,44108.8
296.8,45135.3
296.4,44441.2
296,44585.3
295.6,44800
295.2,44452.9
294.8,44441.2
294.4,45058.8
294,45647.1
293.6,46879.4
293.2,50644.1
292.8,52461.8
292.4,52238.2
292,49082.4
291.6,46852.9
291.2,44944.1
290.8,43958.8
290.4,43555.9
290,44258.8
289.6,45235.3
289.2,45811.8
288.8,46911.8
288.4,47470.6
288,47876.5
287.6,50479.4
287.2,54026.5
286.8,60082.4
286.4,65252.9
286,68202.9
285.6,71638.2
285.2,72485.3
284.8,69914.7
284.4,62255.9
284,54367.6
283.6,48997.1
283.2,46179.4
282.8,44700
282.4,44658.8
282,44014.7
281.6,43785.3
281.2,43811.8
280.8,43552.9
280.4,43105.9
280,43708.8
279.6,43017.6
279.2,43911.8
278.8,43944.1
278.4,42955.9
278,43300
277.6,43523.5
277.2,44673.5
276.8,43673.5
276.4,42885.3
276,43470.6
275.6,43502.9
275.2,43264.7
274.8,43447.1
274.4,43779.4
274,43202.9
273.6,43547.1
273.2,42902.9
272.8,43673.5
272.4,43685.3
272,44232.4
271.6,43832.4
271.2,44005.9
270.8,44223.5
270.4,44897.1
270,43897.1
269.6,44511.8
269.2,44408.8
268.8,44423.5
268.4,44667.6
268,44588.2
267.6,44302.9
267.2,44332.4
266.8,43705.9
266.4,44220.6
266,44552.9
265.6,44035.3
265.2,44729.4
264.8,44538.2
264.4,44252.9
264,44294.1
263.6,44570.6
263.2,45017.6
262.8,44585.3
262.4,45088.2
262,44479.4
261.6,44570.6
261.2,45147.1
260.8,44947.1
260.4,44273.5
260,44700
259.6,44385.3
259.2,44491.2
258.8,44823.5
258.4,44773.5
258,45005.9
257.6,44467.6
257.2,44841.2
256.8,44129.4
256.4,45300
256,44752.9
255.6,45020.6
255.2,45529.4
254.8,45355.9
254.4,45764.7
254,45797.1
253.6,44920.6
253.2,45338.2
252.8,45614.7
252.4,45197.1
252,44447.1
251.6,45655.9
251.2,45488.2
250.8,45755.9
250.4,45141.2
250,44811.8
249.6,45647.1
249.2,44852.9
248.8,46297.1
248.4,45097.1
248,45332.4
247.6,45808.8
247.2,45211.8
246.8,45185.3
246.4,45638.2
246,45911.8
245.6,45344.1
245.2,44932.4
244.8,45455.9
244.4,44811.8
244,45367.6
243.6,46191.2
243.2,46002.9
242.8,45467.6
242.4,45623.5
242,45555.9
241.6,46276.5
241.2,46094.1
240.8,45608.8
240.4,46058.8
240,45679.4
239.6,45526.5
239.2,45991.2
238.8,45258.8
238.4,45520.6
238,45864.7
237.6,45541.2
237.2,46379.4
236.8,46352.9
236.4,46188.2
236,46591.2
235.6,46482.4
235.2,47288.2
234.8,48508.8
234.4,48988.2
234,49844.1
233.6,51350
233.2,52847.1
232.8,52632.4
232.4,52314.7
232,50867.6
231.6,50035.3
231.2,48900
230.8,49067.6
230.4,48679.4
230,48150
229.6,47829.4
229.2,47502.9
228.8,47658.8
228.4,46597.1
228,47191.2
227.6,46244.1
227.2,46508.8
226.8,46882.4
226.4,46567.6
226,46611.8
225.6,46226.5
225.2,47000
224.8,46488.2
224.4,46764.7
224,46926.5
223.6,46626.5
223.2,46352.9
222.8,46426.5
222.4,46861.8
222,46641.2
221.6,46685.3
221.2,47032.4
220.8,47170.6
220.4,46800
220,47050
219.6,47411.8
219.2,46902.9
218.8,47558.8
218.4,47494.1
218,47479.4
217.6,47100
217.2,47785.3
216.8,46732.4
216.4,47370.6
216,48129.4
215.6,47150
215.2,47270.6
214.8,47382.4
214.4,48250
214,48279.4
213.6,47355.9
213.2,47170.6
212.8,47452.9
212.4,47373.5
212,47655.9
211.6,47388.2
211.2,47179.4
210.8,48311.8
210.4,47900
210,47811.8
209.6,47897.1
209.2,47779.4
208.8,47702.9
208.4,47447.1
208,48529.4
207.6,47432.4
207.2,47844.1
206.8,48285.3
206.4,48076.5
206,48494.1
205.6,48282.4
205.2,47861.8
204.8,47938.2
204.4,47717.6
204,47920.6
203.6,48202.9
203.2,48997.1
202.8,48708.8
202.4,48026.5
202,48564.7
201.6,48250
201.2,48394.1
200.8,48850
200.4,49070.6
200,48976.5
199.6,49155.9
199.2,48744.1
198.8,49620.6
198.4,48685.3
198,49497.1
197.6,49300
197.2,49508.8
196.8,49582.4
196.4,49076.5
196,48594.1
195.6,48720.6
195.2,48361.8
194.8,48838.2
194.4,48835.3
194,48676.5
193.6,48885.3
193.2,48144.1
192.8,49438.2
192.4,48129.4
192,49008.8
191.6,49426.5
191.2,49276.5
190.8,48944.1
190.4,49070.6
190,48420.6
189.6,48752.9
189.2,49432.4
188.8,49397.1
188.4,49108.8
188,49011.8
187.6,49185.3
187.2,48620.6
186.8,49697.1
186.4,48623.5
186,48850
185.6,49785.3
185.2,49602.9
184.8,49235.3
184.4,49470.6
184,49000
183.6,50173.5
183.2,49997.1
182.8,49241.2
182.4,49370.6
182,49173.5
181.6,49767.6
181.2,49476.5
180.8,49555.9
180.4,50523.5
180,50120.6
179.6,49455.9
179.2,49114.7
178.8,49232.4
178.4,49682.4
178,49955.9
177.6,49000
177.2,49117.6
176.8,49323.5
176.4,48755.9
176,49494.1
175.6,49800
175.2,49214.7
174.8,49602.9
174.4,49338.2
174,49832.4
173.6,50411.8
173.2,49617.6
172.8,49650
172.4,50091.2
172,50032.4
171.6,51079.4
171.2,50970.6
170.8,53170.6
170.4,54847.1
170,57394.1
169.6,59655.9
169.2,61164.7
168.8,61300
168.4,59714.7
168,56491.2
167.6,53632.4
167.2,51744.1
166.8,50761.8
166.4,50835.3
166,50770.6
165.6,51423.5
165.2,50955.9
164.8,50529.4
164.4,50217.6
164,50241.2
163.6,50179.4
163.2,49897.1
162.8,49726.5
162.4,50414.7
162,49647.1
161.6,50973.5
161.2,49450
160.8,49326.5
160.4,49576.5
160,50729.4
159.6,50264.7
159.2,50347.1
158.8,49870.6
158.4,50432.4
158,50479.4
157.6,49902.9
157.2,50079.4
156.8,50214.7
156.4,49926.5
156,50641.2
155.6,50223.5
155.2,50235.3
154.8,50102.9
154.4,49882.4
154,50564.7
153.6,50629.4
153.2,49814.7
152.8,50379.4
152.4,50082.4
152,50529.4
151.6,50461.8
151.2,51261.8
150.8,50355.9
150.4,50620.6
150,49679.4
149.6,50885.3
149.2,50526.5
148.8,50582.4
148.4,50744.1
148,50347.1
147.6,50191.2
147.2,50976.5
146.8,50394.1
146.4,50938.2
146,50741.2
145.6,50888.2
145.2,50764.7
144.8,50611.8
144.4,51335.3
144,51038.2
143.6,50347.1
143.2,50044.1
142.8,50844.1
142.4,50985.3
142,50747.1
141.6,50917.6
141.2,50870.6
140.8,51091.2
140.4,50476.5
140,51717.6
139.6,50873.5
139.2,50308.8
138.8,50329.4
138.4,50167.6
138,50823.5
137.6,50973.5
137.2,50829.4
136.8,51102.9
136.4,50761.8
136,51464.7
135.6,51138.2
135.2,51202.9
134.8,50955.9
134.4,51085.3
134,51494.1
133.6,51326.5
133.2,50750
132.8,50826.5
132.4,51573.5
132,50820.6
131.6,51311.8
131.2,50623.5
130.8,51214.7
130.4,52061.8
130,51152.9
129.6,50914.7
129.2,50320.6
128.8,49973.5
128.4,51170.6
128,50729.4
127.6,50058.8
127.2,50791.2
126.8,50208.8
126.4,50882.4
126,51220.6
125.6,51088.2
125.2,50811.8
124.8,50891.2
124.4,50764.7
124,50750
123.6,51291.2
123.2,51526.5
122.8,51941.2
122.4,51388.2
122,52194.1
121.6,51117.6
121.2,51991.2
120.8,52000
120.4,51100
120,51908.8
119.6,51329.4
119.2,52002.9
118.8,51679.4
118.4,52082.4
118,51614.7
117.6,52329.4
117.2,52391.2
116.8,52085.3
116.4,52438.2
116,52329.4
115.6,51823.5
115.2,52823.5
114.8,52732.4
114.4,52970.6
114,53002.9
113.6,52797.1
113.2,52711.8
112.8,53561.8
112.4,54020.6
112,53279.4
111.6,53591.2
111.2,53308.8
110.8,54105.9
110.4,53676.5
110,54632.4
109.6,53179.4
109.2,53185.3
108.8,52905.9
108.4,53364.7
108,52526.5
107.6,51973.5
107.2,51429.4
106.8,51652.9
106.4,49850
106,50038.2
105.6,48438.2
105.2,49032.4
104.8,48873.5
104.4,48547.1
104,47397.1
103.6,47094.1
103.2,46602.9
102.8,45902.9
102.4,45605.9
102,45323.5
101.6,44914.7
101.2,44238.2
100.8,43935.3
100.4,43032.4
100,42876.5
99.6,42420.6
99.2,42188.2
98.8,41229.4
98.4,40794.1
98,40123.5
97.6,40020.6
97.2,37694.1
96.8,37335.3
96.4,36176.5
96,36288.2
95.6,36511.8
95.2,35711.8
94.8,35735.3
94.4,34835.3
94,34911.8
93.6,35150
93.2,34211.8
92.8,34020.6
92.4,33735.3
92,34264.7
91.6,34694.1
91.2,35641.2
90.8,36820.6
90.4,39197.1
90,42338.2
89.6,47520.6
89.2,58002.9
88.8,76070.6
88.4,113776
88,165150
87.6,188547
87.2,151465
86.8,92014.7
86.4,59614.7
86,52144.1
85.6,58511.8
85.2,77629.4
84.8,119897
84.4,184559
84,224435
83.6,187712
83.2,106271
82.8,51244.1
82.4,30317.6
82,23102.9
81.6,20632.4
81.2,18152.9
80.8,17091.2
80.4,15791.2
80,14705.9
79.6,14152.9
79.2,13500
78.8,12629.4
78.4,12520.6
78,12173.5
77.6,11820.6
77.2,11735.3
76.8,11773.5
76.4,11770.6
76,12020.6
75.6,12120.6
75.2,11823.5
74.8,11835.3
74.4,11929.4
74,11908.8
73.6,11629.4
73.2,11841.2
72.8,11467.6
72.4,11252.9
72,11270.6
71.6,10294.1
71.2,10611.8
70.8,10114.7
70.4,9905.88
70,9829.41
69.6,9694.12
69.2,9767.65
68.8,9279.41
68.4,9461.76
68,9482.35
67.6,9155.88
67.2,9029.41
66.8,9176.47
66.4,9302.94
66,9458.82
65.6,9188.24
65.2,9379.41
64.8,9514.71
64.4,10079.4
64,10482.4
63.6,11138.2
63.2,11411.8
62.8,11014.7
62.4,11014.7
62,10352.9
61.6,10238.2
61.2,10335.3
60.8,10544.1
60.4,10747.1
60,11238.2
59.6,11441.2
59.2,11635.3
58.8,12464.7
58.4,12820.6
58,13129.4
57.6,13302.9
57.2,13311.8
56.8,13429.4
56.4,13391.2
56,12735.3
55.6,11917.6
55.2,11476.5
54.8,10867.6
54.4,10470.6
54,10317.6
53.6,9685.29
53.2,9061.76
52.8,8782.35
52.4,8770.59
52,8358.82
51.6,8155.88
51.2,8402.94
50.8,7802.94
50.4,7555.88
50,7408.82
49.6,7373.53
49.2,6991.18
48.8,7517.65
48.4,7247.06
48,6994.12
47.6,7229.41
47.2,6779.41
46.8,6847.06
46.4,6735.29
46,6558.82
45.6,6638.24
45.2,6591.18
44.8,6579.41
44.4,6638.24
44,6526.47
43.6,6452.94
43.2,6367.65
42.8,6241.18
42.4,6423.53
42,6511.76
41.6,6247.06
41.2,6485.29
40.8,6505.88
40.4,6567.65
40,6617.65
39.6,6679.41
39.2,6870.59
38.8,6664.71
38.4,6826.47
38,6932.35
37.6,7241.18
37.2,7032.35
36.8,7258.82
36.4,7311.76
36,7429.41
35.6,7470.59
35.2,7841.18
34.8,7432.35
34.4,7679.41
34,7982.35
33.6,8244.12
33.2,7997.06
32.8,8055.88
32.4,7867.65
32,7850
31.6,7761.76
31.2,7858.82
30.8,8402.94
30.4,7914.71
30,8029.41
29.6,7526.47
29.2,7300
28.8,7111.76
28.4,7102.94
28,7014.71
27.6,7005.88
27.2,6917.65
26.8,6882.35
26.4,6926.47
26,6838.24
25.6,6638.24
25.2,6711.76
24.8,6738.24
24.4,6473.53
24,6467.65
23.6,5982.35
23.2,6035.29
22.8,5917.65
22.4,5735.29
22,5582.35
21.6,5444.12
21.2,5411.76
20.8,5385.29
20.4,5520.59
20,5361.76
19.6,5479.41
19.2,5920.59
18.8,5752.94
18.4,5938.24
18,5817.65
17.6,5523.53
17.2,5464.71
16.8,5217.65
16.4,5167.65
16,5044.12
15.6,4885.29
15.2,5076.47
14.8,5111.76
14.4,4758.82
14,4491.18
13.6,4200
13.2,4376.47
12.8,4297.06
12.4,4691.18
12,5023.53
11.6,5097.06
11.2,5226.47
10.8,5388.24
10.4,5482.35
10,5591.18
9.6,5655.88
9.2,5614.71
8.8,6185.29
8.4,7117.65
8,8488.24
7.6,10894.1
7.2,13561.8
6.8,15494.1
6.4,16741.2
6,15870.6
5.6,15197.1
5.2,14535.3
4.8,15191.2
4.4,17014.7
4,17611.8
3.6,17952.9
3.2,17188.2
2.8,15605.9
2.4,12423.5
2,8458.82
1.6,5358.82
1.2,3911.76
0.8,3108.82
0.4,2658.82
-2.27374E-13,1864.71
-0.4,1258.82
-0.8,1132.35
-1.2,958.824
