,
,
Characteristic Energy eV,1486.6
BE_Sur1 1,CPS_Sur1 1
1399.3,29397.1
1398.9,30452.9
1398.5,29914.7
1398.1,29529.4
1397.7,30152.9
1397.3,29650
1396.9,29179.4
1396.5,29311.8
1396.1,29291.2
1395.7,29785.3
1395.3,29623.5
1394.9,29994.1
1394.5,29679.4
1394.1,29138.2
1393.7,29661.8
1393.3,30023.5
1392.9,29905.9
1392.5,29100
1392.1,29508.8
1391.7,29808.8
1391.3,28938.2
1390.9,29152.9
1390.5,29917.6
1390.1,29638.2
1389.7,29488.2
1389.3,29526.5
1388.9,29111.8
1388.5,29979.4
1388.1,29370.6
1387.7,28914.7
1387.3,29317.6
1386.9,28991.2
1386.5,29329.4
1386.1,29138.2
1385.7,29338.2
1385.3,29255.9
1384.9,29302.9
1384.5,29164.7
1384.1,29179.4
1383.7,28820.6
1383.3,28708.8
1382.9,28329.4
1382.5,29208.8
1382.1,29235.3
1381.7,28511.8
1381.3,28838.2
1380.9,29073.5
1380.5,28505.9
1380.1,28623.5
1379.7,28661.8
1379.3,28502.9
1378.9,28358.8
1378.5,28088.2
1378.1,28285.3
1377.7,27850
1377.3,28588.2
1376.9,28017.6
1376.5,28105.9
1376.1,27661.8
1375.7,28088.2
1375.3,28085.3
1374.9,27900
1374.5,28544.1
1374.1,28294.1
1373.7,27526.5
1373.3,27841.2
1372.9,28705.9
1372.5,27458.8
1372.1,27102.9
1371.7,27644.1
1371.3,28114.7
1370.9,28094.1
1370.5,27108.8
1370.1,27514.7
1369.7,27629.4
1369.3,27444.1
1368.9,27370.6
1368.5,27338.2
1368.1,27991.2
1367.7,27541.2
1367.3,28067.6
1366.9,27291.2
1366.5,26738.2
1366.1,27317.6
1365.7,27517.6
1365.3,27120.6
1364.9,27300
1364.5,27411.8
1364.1,27450
1363.7,26855.9
1363.3,26894.1
1362.9,26850
1362.5,27197.1
1362.1,27364.7
1361.7,26958.8
1361.3,27076.5
1360.9,26894.1
1360.5,27020.6
1360.1,26982.4
1359.7,26144.1
1359.3,26302.9
1358.9,26347.1
1358.5,26632.4
1358.1,26591.2
1357.7,26447.1
1357.3,26529.4
1356.9,26500
1356.5,26214.7
1356.1,26444.1
1355.7,26050
1355.3,26261.8
1354.9,26108.8
1354.5,25750
1354.1,26494.1
1353.7,25638.2
1353.3,25767.6
1352.9,26700
1352.5,25926.5
1352.1,26285.3
1351.7,26291.2
1351.3,25664.7
1350.9,26082.4
1350.5,26079.4
1350.1,25570.6
1349.7,26008.8
1349.3,25785.3
1348.9,25741.2
1348.5,25352.9
1348.1,25588.2
1347.7,25388.2
1347.3,25511.8
1346.9,25685.3
1346.5,25676.5
1346.1,25050
1345.7,25200
1345.3,25055.9
1344.9,24835.3
1344.5,25182.4
1344.1,25182.4
1343.7,25000
1343.3,25270.6
1342.9,25229.4
1342.5,25155.9
1342.1,25505.9
1341.7,25364.7
1341.3,24376.5
1340.9,25329.4
1340.5,24791.2
1340.1,24702.9
1339.7,24585.3
1339.3,24526.5
1338.9,24694.1
1338.5,24632.4
1338.1,25155.9
1337.7,24617.6
1337.3,24823.5
1336.9,24779.4
1336.5,24220.6
1336.1,24794.1
1335.7,24350
1335.3,24120.6
1334.9,24320.6
1334.5,25282.4
1334.1,24438.2
1333.7,24129.4
1333.3,24155.9
1332.9,24188.2
1332.5,24070.6
1332.1,24102.9
1331.7,23647.1
1331.3,23741.2
1330.9,23811.8
1330.5,23973.5
1330.1,23944.1
1329.7,24161.8
1329.3,23870.6
1328.9,24147.1
1328.5,23676.5
1328.1,23747.1
1327.7,23920.6
1327.3,23050
1326.9,23741.2
1326.5,23220.6
1326.1,23255.9
1325.7,23502.9
1325.3,23502.9
1324.9,23426.5
1324.5,23561.8
1324.1,23450
1323.7,23500
1323.3,23164.7
1322.9,22932.4
1322.5,23258.8
1322.1,23138.2
1321.7,22850
1321.3,23347.1
1320.9,23141.2
1320.5,22826.5
1320.1,22985.3
1319.7,22829.4
1319.3,22685.3
1318.9,23064.7
1318.5,23488.2
1318.1,22661.8
1317.7,23102.9
1317.3,22617.6
1316.9,22705.9
1316.5,23126.5
1316.1,22752.9
1315.7,23114.7
1315.3,22835.3
1314.9,22605.9
1314.5,22450
1314.1,21894.1
1313.7,22761.8
1313.3,22838.2
1312.9,22605.9
1312.5,21905.9
1312.1,22305.9
1311.7,22600
1311.3,22350
1310.9,22358.8
1310.5,22564.7
1310.1,22482.4
1309.7,22632.4
1309.3,22626.5
1308.9,22300
1308.5,22447.1
1308.1,22835.3
1307.7,22132.4
1307.3,22455.9
1306.9,22626.5
1306.5,22629.4
1306.1,22794.1
1305.7,22561.8
1305.3,22320.6
1304.9,22111.8
1304.5,22150
1304.1,22141.2
1303.7,22126.5
1303.3,22955.9
1302.9,21973.5
1302.5,21967.6
1302.1,22958.8
1301.7,21738.2
1301.3,22120.6
1300.9,22338.2
1300.5,22435.3
1300.1,22426.5
1299.7,22000
1299.3,21767.6
1298.9,21823.5
1298.5,21967.6
1298.1,21714.7
1297.7,22138.2
1297.3,22197.1
1296.9,22382.4
1296.5,21529.4
1296.1,21911.8
1295.7,22444.1
1295.3,22047.1
1294.9,22135.3
1294.5,21882.4
1294.1,21941.2
1293.7,21761.8
1293.3,22026.5
1292.9,22000
1292.5,21926.5
1292.1,22526.5
1291.7,21450
1291.3,21894.1
1290.9,22026.5
1290.5,21920.6
1290.1,21382.4
1289.7,21791.2
1289.3,22120.6
1288.9,21894.1
1288.5,21808.8
1288.1,22023.5
1287.7,21514.7
1287.3,22129.4
1286.9,21705.9
1286.5,21597.1
1286.1,21929.4
1285.7,21652.9
1285.3,21864.7
1284.9,21879.4
1284.5,22238.2
1284.1,21814.7
1283.7,21661.8
1283.3,21373.5
1282.9,21855.9
1282.5,21832.4
1282.1,22223.5
1281.7,22205.9
1281.3,21847.1
1280.9,21750
1280.5,22185.3
1280.1,21555.9
1279.7,21991.2
1279.3,21794.1
1278.9,21820.6
1278.5,22220.6
1278.1,21902.9
1277.7,21876.5
1277.3,21776.5
1276.9,21894.1
1276.5,21685.3
1276.1,21714.7
1275.7,22079.4
1275.3,21526.5
1274.9,21570.6
1274.5,21488.2
1274.1,22150
1273.7,22079.4
1273.3,21797.1
1272.9,21888.2
1272.5,21602.9
1272.1,22002.9
1271.7,21338.2
1271.3,21508.8
1270.9,22064.7
1270.5,22041.2
1270.1,21570.6
1269.7,22044.1
1269.3,21852.9
1268.9,21758.8
1268.5,21926.5
1268.1,21917.6
1267.7,21738.2
1267.3,22197.1
1266.9,21835.3
1266.5,21547.1
1266.1,22161.8
1265.7,21897.1
1265.3,22158.8
1264.9,22408.8
1264.5,22379.4
1264.1,22091.2
1263.7,21850
1263.3,21902.9
1262.9,21800
1262.5,21444.1
1262.1,22111.8
1261.7,21611.8
1261.3,21452.9
1260.9,21694.1
1260.5,21888.2
1260.1,21385.3
1259.7,22194.1
1259.3,21705.9
1258.9,22026.5
1258.5,21744.1
1258.1,21811.8
1257.7,21964.7
1257.3,22405.9
1256.9,22079.4
1256.5,22041.2
1256.1,22017.6
1255.7,21835.3
1255.3,22147.1
1254.9,21520.6
1254.5,22052.9
1254.1,21467.6
1253.7,21688.2
1253.3,22117.6
1252.9,21938.2
1252.5,22135.3
1252.1,22055.9
1251.7,22252.9
1251.3,22705.9
1250.9,21997.1
1250.5,22155.9
1250.1,22241.2
1249.7,22314.7
1249.3,23035.3
1248.9,22608.8
1248.5,22629.4
1248.1,22470.6
1247.7,22573.5
1247.3,23017.6
1246.9,22491.2
1246.5,22870.6
1246.1,22138.2
1245.7,22458.8
1245.3,22770.6
1244.9,22879.4
1244.5,22482.4
1244.1,22655.9
1243.7,22173.5
1243.3,22873.5
1242.9,22670.6
1242.5,22241.2
1242.1,22405.9
1241.7,22591.2
1241.3,22908.8
1240.9,22461.8
1240.5,22294.1
1240.1,22341.2
1239.7,22150
1239.3,22247.1
1238.9,22285.3
1238.5,22223.5
1238.1,22308.8
1237.7,22132.4
1237.3,22438.2
1236.9,22488.2
1236.5,22758.8
1236.1,22050
1235.7,22300
1235.3,21808.8
1234.9,22264.7
1234.5,22529.4
1234.1,22920.6
1233.7,22476.5
1233.3,22635.3
1232.9,22917.6
1232.5,23244.1
1232.1,22441.2
1231.7,22608.8
1231.3,22905.9
1230.9,23185.3
1230.5,22885.3
1230.1,23408.8
1229.7,22688.2
1229.3,23014.7
1228.9,23085.3
1228.5,23308.8
1228.1,23241.2
1227.7,23017.6
1227.3,23226.5
1226.9,23067.6
1226.5,23600
1226.1,23220.6
1225.7,23432.4
1225.3,22982.4
1224.9,23129.4
1224.5,23429.4
1224.1,23364.7
1223.7,22850
1223.3,23308.8
1222.9,23176.5
1222.5,22938.2
1222.1,22941.2
1221.7,22926.5
1221.3,22958.8
1220.9,22179.4
1220.5,21950
1220.1,22067.6
1219.7,22029.4
1219.3,21826.5
1218.9,21800
1218.5,21702.9
1218.1,20991.2
1217.7,21217.6
1217.3,20908.8
1216.9,21370.6
1216.5,20723.5
1216.1,20808.8
1215.7,20426.5
1215.3,20576.5
1214.9,20647.1
1214.5,20252.9
1214.1,20735.3
1213.7,20464.7
1213.3,20573.5
1212.9,20323.5
1212.5,20182.4
1212.1,20188.2
1211.7,19952.9
1211.3,20282.4
1210.9,20314.7
1210.5,20182.4
1210.1,19723.5
1209.7,20108.8
1209.3,19935.3
1208.9,19623.5
1208.5,19958.8
1208.1,20629.4
1207.7,20358.8
1207.3,20261.8
1206.9,19794.1
1206.5,19894.1
1206.1,20282.4
1205.7,20029.4
1205.3,20041.2
1204.9,19997.1
1204.5,19911.8
1204.1,20017.6
1203.7,19982.4
1203.3,20211.8
1202.9,20450
1202.5,20288.2
1202.1,19891.2
1201.7,20241.2
1201.3,19785.3
1200.9,20026.5
1200.5,19702.9
1200.1,20126.5
1199.7,20338.2
1199.3,20508.8
1198.9,20205.9
1198.5,20058.8
1198.1,20114.7
1197.7,19970.6
1197.3,20779.4
1196.9,20441.2
1196.5,19964.7
1196.1,20244.1
1195.7,20732.4
1195.3,20338.2
1194.9,20726.5
1194.5,19835.3
1194.1,20611.8
1193.7,20444.1
1193.3,20117.6
1192.9,19941.2
1192.5,20379.4
1192.1,20614.7
1191.7,20329.4
1191.3,19926.5
1190.9,20238.2
1190.5,20500
1190.1,20238.2
1189.7,20452.9
1189.3,20370.6
1188.9,20355.9
1188.5,20123.5
1188.1,19841.2
1187.7,20197.1
1187.3,20467.6
1186.9,20585.3
1186.5,20064.7
1186.1,20723.5
1185.7,20235.3
1185.3,20261.8
1184.9,20091.2
1184.5,20708.8
1184.1,20279.4
1183.7,20135.3
1183.3,20132.4
1182.9,20314.7
1182.5,20082.4
1182.1,20529.4
1181.7,20405.9
1181.3,20100
1180.9,20232.4
1180.5,19944.1
1180.1,20561.8
1179.7,20091.2
1179.3,20541.2
1178.9,20617.6
1178.5,20641.2
1178.1,20194.1
1177.7,20432.4
1177.3,20779.4
1176.9,20594.1
1176.5,20629.4
1176.1,20958.8
1175.7,20450
1175.3,20814.7
1174.9,20632.4
1174.5,20367.6
1174.1,20447.1
1173.7,20605.9
1173.3,21085.3
1172.9,20476.5
1172.5,20911.8
1172.1,21002.9
1171.7,20994.1
1171.3,20676.5
1170.9,20529.4
1170.5,20670.6
1170.1,20441.2
1169.7,20617.6
1169.3,20617.6
1168.9,20682.4
1168.5,20514.7
1168.1,20797.1
1167.7,20711.8
1167.3,21102.9
1166.9,21223.5
1166.5,20467.6
1166.1,20779.4
1165.7,20408.8
1165.3,20194.1
1164.9,20852.9
1164.5,20564.7
1164.1,20858.8
1163.7,20579.4
1163.3,20620.6
1162.9,21164.7
1162.5,20964.7
1162.1,20635.3
1161.7,20858.8
1161.3,21070.6
1160.9,20488.2
1160.5,21097.1
1160.1,20808.8
1159.7,21064.7
1159.3,20773.5
1158.9,20655.9
1158.5,21155.9
1158.1,21126.5
1157.7,20694.1
1157.3,20867.6
1156.9,21126.5
1156.5,21017.6
1156.1,21035.3
1155.7,21311.8
1155.3,21014.7
1154.9,21455.9
1154.5,20932.4
1154.1,21179.4
1153.7,20823.5
1153.3,21144.1
1152.9,20767.6
1152.5,21064.7
1152.1,21473.5
1151.7,21544.1
1151.3,21023.5
1150.9,21870.6
1150.5,20729.4
1150.1,21223.5
1149.7,21291.2
1149.3,20847.1
1148.9,21450
1148.5,20914.7
1148.1,21602.9
1147.7,21647.1
1147.3,21258.8
1146.9,21094.1
1146.5,21650
1146.1,21491.2
1145.7,21752.9
1145.3,21326.5
1144.9,21267.6
1144.5,21702.9
1144.1,21585.3
1143.7,21926.5
1143.3,21208.8
1142.9,21755.9
1142.5,21502.9
1142.1,21664.7
1141.7,21744.1
1141.3,21700
1140.9,21432.4
1140.5,21432.4
1140.1,21629.4
1139.7,21838.2
1139.3,21223.5
1138.9,21447.1
1138.5,21644.1
1138.1,21435.3
1137.7,21602.9
1137.3,21582.4
1136.9,22023.5
1136.5,21802.9
1136.1,21976.5
1135.7,21426.5
1135.3,21788.2
1134.9,21797.1
1134.5,22552.9
1134.1,21782.4
1133.7,22523.5
1133.3,21791.2
1132.9,22320.6
1132.5,21970.6
1132.1,21926.5
1131.7,22094.1
1131.3,21767.6
1130.9,22138.2
1130.5,22147.1
1130.1,22402.9
1129.7,21938.2
1129.3,22105.9
1128.9,22011.8
1128.5,22229.4
1128.1,22129.4
1127.7,21820.6
1127.3,22400
1126.9,22114.7
1126.5,22638.2
1126.1,21861.8
1125.7,21835.3
1125.3,21717.6
1124.9,22082.4
1124.5,22038.2
1124.1,21455.9
1123.7,22164.7
1123.3,22082.4
1122.9,22041.2
1122.5,22091.2
1122.1,22444.1
1121.7,22370.6
1121.3,22600
1120.9,22314.7
1120.5,22373.5
1120.1,22132.4
1119.7,22205.9
1119.3,22444.1
1118.9,21982.4
1118.5,22302.9
1118.1,22129.4
1117.7,22150
1117.3,21926.5
1116.9,22408.8
1116.5,22455.9
1116.1,22464.7
1115.7,22144.1
1115.3,22070.6
1114.9,22100
1114.5,22605.9
1114.1,22020.6
1113.7,22520.6
1113.3,22844.1
1112.9,22923.5
1112.5,22152.9
1112.1,22791.2
1111.7,22594.1
1111.3,22876.5
1110.9,22876.5
1110.5,22411.8
1110.1,22344.1
1109.7,22870.6
1109.3,22755.9
1108.9,22600
1108.5,23129.4
1108.1,22320.6
1107.7,23338.2
1107.3,22894.1
1106.9,22594.1
1106.5,22452.9
1106.1,22908.8
1105.7,23026.5
1105.3,22991.2
1104.9,22973.5
1104.5,23267.6
1104.1,22867.6
1103.7,22664.7
1103.3,22647.1
1102.9,22797.1
1102.5,23300
1102.1,23402.9
1101.7,22779.4
1101.3,22682.4
1100.9,23047.1
1100.5,22894.1
1100.1,22864.7
1099.7,23047.1
1099.3,23079.4
1098.9,22841.2
1098.5,22858.8
1098.1,23023.5
1097.7,22855.9
1097.3,23223.5
1096.9,23250
1096.5,22770.6
1096.1,23050
1095.7,23044.1
1095.3,22752.9
1094.9,23279.4
1094.5,23494.1
1094.1,23552.9
1093.7,23385.3
1093.3,23147.1
1092.9,23241.2
1092.5,23847.1
1092.1,22900
1091.7,23302.9
1091.3,23388.2
1090.9,23458.8
1090.5,23376.5
1090.1,23073.5
1089.7,23705.9
1089.3,23335.3
1088.9,23470.6
1088.5,23223.5
1088.1,23482.4
1087.7,23582.4
1087.3,23402.9
1086.9,23488.2
1086.5,23155.9
1086.1,23252.9
1085.7,23502.9
1085.3,23288.2
1084.9,23176.5
1084.5,23191.2
1084.1,23567.6
1083.7,23897.1
1083.3,23626.5
1082.9,23408.8
1082.5,23550
1082.1,23270.6
1081.7,23597.1
1081.3,23629.4
1080.9,22897.1
1080.5,23452.9
1080.1,24194.1
1079.7,24067.6
1079.3,23608.8
1078.9,23788.2
1078.5,23473.5
1078.1,23764.7
1077.7,24247.1
1077.3,23841.2
1076.9,23517.6
1076.5,23935.3
1076.1,23547.1
1075.7,23514.7
1075.3,23770.6
1074.9,23926.5
1074.5,23635.3
1074.1,24023.5
1073.7,23850
1073.3,23726.5
1072.9,24073.5
1072.5,24497.1
1072.1,24335.3
1071.7,24582.4
1071.3,24414.7
1070.9,24023.5
1070.5,24461.8
1070.1,23879.4
1069.7,24147.1
1069.3,24014.7
1068.9,24094.1
1068.5,23994.1
1068.1,23982.4
1067.7,24414.7
1067.3,23967.6
1066.9,24355.9
1066.5,23967.6
1066.1,24370.6
1065.7,24400
1065.3,24055.9
1064.9,24061.8
1064.5,24458.8
1064.1,24511.8
1063.7,24358.8
1063.3,24811.8
1062.9,24400
1062.5,24676.5
1062.1,24714.7
1061.7,24205.9
1061.3,24241.2
1060.9,24150
1060.5,24461.8
1060.1,24300
1059.7,24120.6
1059.3,23994.1
1058.9,23955.9
1058.5,24520.6
1058.1,24711.8
1057.7,24200
1057.3,24685.3
1056.9,24614.7
1056.5,24426.5
1056.1,24738.2
1055.7,24729.4
1055.3,24876.5
1054.9,24864.7
1054.5,25005.9
1054.1,24514.7
1053.7,24714.7
1053.3,24688.2
1052.9,25032.4
1052.5,25005.9
1052.1,24585.3
1051.7,25117.6
1051.3,24417.6
1050.9,24705.9
1050.5,25067.6
1050.1,25088.2
1049.7,24891.2
1049.3,24405.9
1048.9,24967.6
1048.5,25088.2
1048.1,25211.8
1047.7,24970.6
1047.3,25773.5
1046.9,25323.5
1046.5,25420.6
1046.1,26247.1
1045.7,26258.8
1045.3,25402.9
1044.9,25235.3
1044.5,25629.4
1044.1,25317.6
1043.7,25344.1
1043.3,25252.9
1042.9,24794.1
1042.5,25373.5
1042.1,25326.5
1041.7,25000
1041.3,25473.5
1040.9,25105.9
1040.5,24882.4
1040.1,25432.4
1039.7,25529.4
1039.3,25779.4
1038.9,25320.6
1038.5,25073.5
1038.1,24950
1037.7,25311.8
1037.3,25535.3
1036.9,25450
1036.5,25229.4
1036.1,26158.8
1035.7,25282.4
1035.3,25332.4
1034.9,25732.4
1034.5,25458.8
1034.1,25838.2
1033.7,25611.8
1033.3,25905.9
1032.9,25491.2
1032.5,25400
1032.1,26144.1
1031.7,25482.4
1031.3,25926.5
1030.9,25758.8
1030.5,25297.1
1030.1,26226.5
1029.7,25626.5
1029.3,25529.4
1028.9,25520.6
1028.5,25920.6
1028.1,25691.2
1027.7,25626.5
1027.3,26129.4
1026.9,25361.8
1026.5,25697.1
1026.1,25861.8
1025.7,25667.6
1025.3,26814.7
1024.9,26314.7
1024.5,26735.3
1024.1,26664.7
1023.7,27088.2
1023.3,27229.4
1022.9,27444.1
1022.5,27294.1
1022.1,26914.7
1021.7,26352.9
1021.3,26373.5
1020.9,26252.9
1020.5,26179.4
1020.1,25847.1
1019.7,26532.4
1019.3,25520.6
1018.9,26173.5
1018.5,26238.2
1018.1,26197.1
1017.7,26000
1017.3,26550
1016.9,25791.2
1016.5,26152.9
1016.1,26229.4
1015.7,26047.1
1015.3,25894.1
1014.9,26617.6
1014.5,26370.6
1014.1,26420.6
1013.7,26064.7
1013.3,26402.9
1012.9,26329.4
1012.5,26923.5
1012.1,26682.4
1011.7,26691.2
1011.3,26538.2
1010.9,26394.1
1010.5,26202.9
1010.1,26855.9
1009.7,27150
1009.3,26800
1008.9,26470.6
1008.5,26426.5
1008.1,26802.9
1007.7,26620.6
1007.3,26697.1
1006.9,27067.6
1006.5,27411.8
1006.1,26288.2
1005.7,26891.2
1005.3,26908.8
1004.9,27100
1004.5,26588.2
1004.1,27144.1
1003.7,26488.2
1003.3,26967.6
1002.9,27861.8
1002.5,27326.5
1002.1,28017.6
1001.7,27317.6
1001.3,27485.3
1000.9,27547.1
1000.5,27120.6
1000.1,26920.6
999.7,27085.3
999.3,27150
998.9,27461.8
998.5,27582.4
998.1,27488.2
997.7,27973.5
997.3,27373.5
996.9,27108.8
996.5,27038.2
996.1,27032.4
995.7,27864.7
995.3,27791.2
994.9,27570.6
994.5,26911.8
994.1,26988.2
993.7,27520.6
993.3,26826.5
992.9,26955.9
992.5,26950
992.1,27402.9
991.7,26897.1
991.3,27452.9
990.9,27100
990.5,27355.9
990.1,26708.8
989.7,27735.3
989.3,27311.8
988.9,27558.8
988.5,27388.2
988.1,26861.8
987.7,27217.6
987.3,27235.3
986.9,27226.5
986.5,27450
986.1,27597.1
985.7,26941.2
985.3,27314.7
984.9,26773.5
984.5,27635.3
984.1,27188.2
983.7,27779.4
983.3,28014.7
982.9,27608.8
982.5,27264.7
982.1,28129.4
981.7,28020.6
981.3,28038.2
980.9,27705.9
980.5,28055.9
980.1,28429.4
979.7,28238.2
979.3,28102.9
978.9,28714.7
978.5,28861.8
978.1,28841.2
977.7,28252.9
977.3,28473.5
976.9,28635.3
976.5,28361.8
976.1,28350
975.7,28723.5
975.3,28508.8
974.9,28238.2
974.5,28738.2
974.1,28235.3
973.7,28129.4
973.3,28082.4
972.9,28094.1
972.5,27920.6
972.1,28326.5
971.7,27805.9
971.3,28185.3
970.9,27488.2
970.5,27741.2
970.1,28055.9
969.7,27558.8
969.3,27629.4
968.9,27797.1
968.5,27252.9
968.1,27988.2
967.7,26979.4
967.3,27664.7
966.9,27323.5
966.5,27114.7
966.1,27079.4
965.7,27617.6
965.3,26935.3
964.9,27450
964.5,27220.6
964.1,27279.4
963.7,27711.8
963.3,27391.2
962.9,27252.9
962.5,27635.3
962.1,27402.9
961.7,27476.5
961.3,27876.5
960.9,27700
960.5,27608.8
960.1,27164.7
959.7,27735.3
959.3,27867.6
958.9,27323.5
958.5,27061.8
958.1,27541.2
957.7,27014.7
957.3,28029.4
956.9,27591.2
956.5,27835.3
956.1,27170.6
955.7,27617.6
955.3,28064.7
954.9,27755.9
954.5,27967.6
954.1,27294.1
953.7,27876.5
953.3,27238.2
952.9,28044.1
952.5,27641.2
952.1,27876.5
951.7,27776.5
951.3,27888.2
950.9,28026.5
950.5,28014.7
950.1,27961.8
949.7,27638.2
949.3,27714.7
948.9,27861.8
948.5,27694.1
948.1,28055.9
947.7,28302.9
947.3,28726.5
946.9,28508.8
946.5,27917.6
946.1,27785.3
945.7,27911.8
945.3,28247.1
944.9,27944.1
944.5,28458.8
944.1,28523.5
943.7,28429.4
943.3,28917.6
942.9,28944.1
942.5,28332.4
942.1,28147.1
941.7,27794.1
941.3,28888.2
940.9,28329.4
940.5,28726.5
940.1,28317.6
939.7,28414.7
939.3,28632.4
938.9,28273.5
938.5,28714.7
938.1,29179.4
937.7,28550
937.3,28950
936.9,28776.5
936.5,29029.4
936.1,28497.1
935.7,28417.6
935.3,28558.8
934.9,28923.5
934.5,28452.9
934.1,28755.9
933.7,28994.1
933.3,29000
932.9,28405.9
932.5,28932.4
932.1,29076.5
931.7,28932.4
931.3,28832.4
930.9,28982.4
930.5,29350
930.1,28391.2
929.7,28947.1
929.3,29067.6
928.9,29273.5
928.5,28747.1
928.1,29150
927.7,29288.2
927.3,29441.2
926.9,29244.1
926.5,29694.1
926.1,28764.7
925.7,29008.8
925.3,29105.9
924.9,29150
924.5,29714.7
924.1,29188.2
923.7,29141.2
923.3,29438.2
922.9,29088.2
922.5,29088.2
922.1,29326.5
921.7,29514.7
921.3,29114.7
920.9,29752.9
920.5,29555.9
920.1,29852.9
919.7,29382.4
919.3,28864.7
918.9,29664.7
918.5,29485.3
918.1,29920.6
917.7,30055.9
917.3,29238.2
916.9,29558.8
916.5,29997.1
916.1,29508.8
915.7,29402.9
915.3,30070.6
914.9,29488.2
914.5,30297.1
914.1,29820.6
913.7,29579.4
913.3,29602.9
912.9,29991.2
912.5,29497.1
912.1,29797.1
911.7,29729.4
911.3,29811.8
910.9,29532.4
910.5,29541.2
910.1,29414.7
909.7,30467.6
909.3,30585.3
908.9,30323.5
908.5,30285.3
908.1,30558.8
907.7,30073.5
907.3,29876.5
906.9,30447.1
906.5,29761.8
906.1,30497.1
905.7,29858.8
905.3,30238.2
904.9,29970.6
904.5,30232.4
904.1,30441.2
903.7,29829.4
903.3,30252.9
902.9,30902.9
902.5,30379.4
902.1,30567.6
901.7,30441.2
901.3,30458.8
900.9,30826.5
900.5,30367.6
900.1,30347.1
899.7,30314.7
899.3,31038.2
898.9,30082.4
898.5,30935.3
898.1,31023.5
897.7,31014.7
897.3,30332.4
896.9,30917.6
896.5,31129.4
896.1,30820.6
895.7,30676.5
895.3,30908.8
894.9,30650
894.5,30691.2
894.1,30823.5
893.7,31229.4
893.3,30823.5
892.9,30702.9
892.5,30797.1
892.1,30688.2
891.7,30926.5
891.3,31105.9
890.9,31311.8
890.5,31305.9
890.1,31114.7
889.7,30920.6
889.3,30661.8
888.9,30926.5
888.5,31097.1
888.1,31123.5
887.7,31508.8
887.3,31102.9
886.9,31558.8
886.5,31129.4
886.1,31802.9
885.7,31326.5
885.3,31114.7
884.9,31197.1
884.5,31729.4
884.1,31538.2
883.7,31773.5
883.3,31170.6
882.9,31423.5
882.5,31717.6
882.1,31900
881.7,31791.2
881.3,31408.8
880.9,31461.8
880.5,32020.6
880.1,31255.9
879.7,32305.9
879.3,31900
878.9,31661.8
878.5,31726.5
878.1,31732.4
877.7,31644.1
877.3,31864.7
876.9,32070.6
876.5,31950
876.1,31573.5
875.7,31861.8
875.3,31576.5
874.9,32147.1
874.5,32076.5
874.1,32176.5
873.7,32441.2
873.3,31955.9
872.9,31897.1
872.5,32185.3
872.1,31408.8
871.7,31697.1
871.3,31994.1
870.9,32561.8
870.5,32532.4
870.1,32355.9
869.7,31750
869.3,32588.2
868.9,32188.2
868.5,32547.1
868.1,32729.4
867.7,32767.6
867.3,32285.3
866.9,32820.6
866.5,32461.8
866.1,32823.5
865.7,32994.1
865.3,32411.8
864.9,32494.1
864.5,32973.5
864.1,32932.4
863.7,32458.8
863.3,32744.1
862.9,32897.1
862.5,33061.8
862.1,33329.4
861.7,32664.7
861.3,32682.4
860.9,33555.9
860.5,32429.4
860.1,32897.1
859.7,33414.7
859.3,32752.9
858.9,32947.1
858.5,33120.6
858.1,33835.3
857.7,32826.5
857.3,33588.2
856.9,33423.5
856.5,33267.6
856.1,33364.7
855.7,33382.4
855.3,33211.8
854.9,33152.9
854.5,33544.1
854.1,33567.6
853.7,33591.2
853.3,33723.5
852.9,32961.8
852.5,33205.9
852.1,33000
851.7,33047.1
851.3,33185.3
850.9,33617.6
850.5,32897.1
850.1,33182.4
849.7,32876.5
849.3,33182.4
848.9,32979.4
848.5,32826.5
848.1,33405.9
847.7,33132.4
847.3,33111.8
846.9,33226.5
846.5,33717.6
846.1,32691.2
845.7,33700
845.3,33655.9
844.9,33458.8
844.5,33561.8
844.1,33488.2
843.7,33488.2
843.3,33182.4
842.9,33679.4
842.5,33476.5
842.1,33914.7
841.7,33952.9
841.3,33485.3
840.9,34094.1
840.5,33411.8
840.1,33352.9
839.7,33114.7
839.3,33626.5
838.9,33758.8
838.5,34200
838.1,34605.9
837.7,33911.8
837.3,34505.9
836.9,35332.4
836.5,34841.2
836.1,35805.9
835.7,35688.2
835.3,34947.1
834.9,35694.1
834.5,35514.7
834.1,35905.9
833.7,36217.6
833.3,36411.8
832.9,35691.2
832.5,35582.4
832.1,35600
831.7,35517.6
831.3,35073.5
830.9,35552.9
830.5,35064.7
830.1,35352.9
829.7,34876.5
829.3,34797.1
828.9,34702.9
828.5,34964.7
828.1,33897.1
827.7,34347.1
827.3,34600
826.9,34273.5
826.5,34452.9
826.1,34608.8
825.7,34488.2
825.3,33779.4
824.9,34635.3
824.5,33994.1
824.1,33838.2
823.7,33067.6
823.3,33800
822.9,34205.9
822.5,33435.3
822.1,33655.9
821.7,33967.6
821.3,33741.2
820.9,33752.9
820.5,33485.3
820.1,33817.6
819.7,34211.8
819.3,34038.2
818.9,33585.3
818.5,33379.4
818.1,33464.7
817.7,34105.9
817.3,33597.1
816.9,34085.3
816.5,33185.3
816.1,33661.8
815.7,33470.6
815.3,34347.1
814.9,33985.3
814.5,34032.4
814.1,33376.5
813.7,33932.4
813.3,33955.9
812.9,34082.4
812.5,34008.8
812.1,34067.6
811.7,33717.6
811.3,33955.9
810.9,34223.5
810.5,34038.2
810.1,34152.9
809.7,34341.2
809.3,34497.1
808.9,33658.8
808.5,34400
808.1,33461.8
807.7,34605.9
807.3,34461.8
806.9,34379.4
806.5,33867.6
806.1,34505.9
805.7,34529.4
805.3,34211.8
804.9,34152.9
804.5,34632.4
804.1,34852.9
803.7,34835.3
803.3,34761.8
802.9,34626.5
802.5,34497.1
802.1,34858.8
801.7,34691.2
801.3,34382.4
800.9,34694.1
800.5,34435.3
800.1,34820.6
799.7,34923.5
799.3,34176.5
798.9,34826.5
798.5,34917.6
798.1,35373.5
797.7,34132.4
797.3,34585.3
796.9,34388.2
796.5,34470.6
796.1,34897.1
795.7,34602.9
795.3,35079.4
794.9,35076.5
794.5,35202.9
794.1,34694.1
793.7,34658.8
793.3,35147.1
792.9,35323.5
792.5,35279.4
792.1,35485.3
791.7,35205.9
791.3,35373.5
790.9,35205.9
790.5,34723.5
790.1,35494.1
789.7,35723.5
789.3,35417.6
788.9,35173.5
788.5,35652.9
788.1,35432.4
787.7,35620.6
787.3,35485.3
786.9,35817.6
786.5,35773.5
786.1,35152.9
785.7,35358.8
785.3,35585.3
784.9,35458.8
784.5,35550
784.1,35688.2
783.7,35485.3
783.3,35255.9
782.9,35944.1
782.5,35841.2
782.1,35508.8
781.7,35864.7
781.3,35214.7
780.9,36023.5
780.5,35797.1
780.1,36091.2
779.7,35958.8
779.3,36176.5
778.9,35891.2
778.5,36167.6
778.1,36111.8
777.7,36026.5
777.3,36005.9
776.9,35547.1
776.5,35770.6
776.1,35802.9
775.7,35514.7
775.3,35950
774.9,36038.2
774.5,35670.6
774.1,35582.4
773.7,35547.1
773.3,35976.5
772.9,35823.5
772.5,36164.7
772.1,35917.6
771.7,36002.9
771.3,36976.5
770.9,36652.9
770.5,35547.1
770.1,36067.6
769.7,35985.3
769.3,36844.1
768.9,36502.9
768.5,36755.9
768.1,36758.8
767.7,36194.1
767.3,36814.7
766.9,36020.6
766.5,36688.2
766.1,36376.5
765.7,36758.8
765.3,36229.4
764.9,37358.8
764.5,37164.7
764.1,36723.5
763.7,37032.4
763.3,37929.4
762.9,36597.1
762.5,37285.3
762.1,37285.3
761.7,37614.7
761.3,38152.9
760.9,37232.4
760.5,37226.5
760.1,37223.5
759.7,37488.2
759.3,37302.9
758.9,36938.2
758.5,37773.5
758.1,36632.4
757.7,37129.4
757.3,36708.8
756.9,36679.4
756.5,37032.4
756.1,36758.8
755.7,36435.3
755.3,36458.8
754.9,36852.9
754.5,36485.3
754.1,36835.3
753.7,36888.2
753.3,36582.4
752.9,37058.8
752.5,36473.5
752.1,36902.9
751.7,36679.4
751.3,37244.1
750.9,36635.3
750.5,36329.4
750.1,36585.3
749.7,36741.2
749.3,36300
748.9,37879.4
748.5,37432.4
748.1,36991.2
747.7,36394.1
747.3,37702.9
746.9,37120.6
746.5,37035.3
746.1,37100
745.7,37276.5
745.3,36561.8
744.9,37158.8
744.5,37117.6
744.1,36705.9
743.7,37005.9
743.3,36905.9
742.9,36405.9
742.5,37323.5
742.1,37382.4
741.7,37120.6
741.3,36894.1
740.9,37908.8
740.5,37188.2
740.1,37400
739.7,37385.3
739.3,37211.8
738.9,37500
738.5,37070.6
738.1,37835.3
737.7,36991.2
737.3,37532.4
736.9,38076.5
736.5,38047.1
736.1,37700
735.7,38152.9
735.3,37535.3
734.9,38126.5
734.5,37835.3
734.1,37467.6
733.7,37944.1
733.3,37997.1
732.9,38073.5
732.5,38035.3
732.1,37988.2
731.7,37426.5
731.3,38026.5
730.9,37591.2
730.5,38185.3
730.1,37555.9
729.7,37935.3
729.3,37732.4
728.9,38252.9
728.5,38550
728.1,38032.4
727.7,37829.4
727.3,38173.5
726.9,37691.2
726.5,38188.2
726.1,37670.6
725.7,38835.3
725.3,38320.6
724.9,38085.3
724.5,38014.7
724.1,38147.1
723.7,38397.1
723.3,38782.4
722.9,38332.4
722.5,38376.5
722.1,38967.6
721.7,38205.9
721.3,39017.6
720.9,38832.4
720.5,38076.5
720.1,38047.1
719.7,38747.1
719.3,38952.9
718.9,38605.9
718.5,39255.9
718.1,38691.2
717.7,39126.5
717.3,39185.3
716.9,39461.8
716.5,38764.7
716.1,39535.3
715.7,38579.4
715.3,39132.4
714.9,38808.8
714.5,38905.9
714.1,39088.2
713.7,39220.6
713.3,39555.9
712.9,39044.1
712.5,38711.8
712.1,39279.4
711.7,39100
711.3,39344.1
710.9,39161.8
710.5,39752.9
710.1,39394.1
709.7,39244.1
709.3,39558.8
708.9,39838.2
708.5,38861.8
708.1,39347.1
707.7,39129.4
707.3,38691.2
706.9,39311.8
706.5,39005.9
706.1,39526.5
705.7,38567.6
705.3,39079.4
704.9,39085.3
704.5,39629.4
704.1,39029.4
703.7,39088.2
703.3,39150
702.9,39276.5
702.5,38994.1
702.1,39255.9
701.7,39220.6
701.3,38647.1
700.9,38632.4
700.5,39191.2
700.1,39352.9
699.7,38826.5
699.3,38723.5
698.9,38841.2
698.5,39058.8
698.1,39111.8
697.7,39461.8
697.3,38032.4
696.9,38670.6
696.5,38055.9
696.1,38017.6
695.7,38355.9
695.3,38291.2
694.9,38673.5
694.5,37958.8
694.1,39005.9
693.7,39032.4
693.3,38929.4
692.9,38961.8
692.5,38623.5
692.1,39376.5
691.7,39150
691.3,40205.9
690.9,41197.1
690.5,43714.7
690.1,48152.9
689.7,53382.4
689.3,57402.9
688.9,60276.5
688.5,57988.2
688.1,54300
687.7,48352.9
687.3,43514.7
686.9,41800
686.5,40705.9
686.1,40702.9
685.7,40758.8
685.3,40467.6
684.9,39814.7
684.5,39923.5
684.1,39411.8
683.7,39070.6
683.3,39338.2
682.9,38779.4
682.5,38970.6
682.1,38223.5
681.7,38929.4
681.3,38373.5
680.9,39300
680.5,38732.4
680.1,38935.3
679.7,38411.8
679.3,39250
678.9,38541.2
678.5,38735.3
678.1,39467.6
677.7,39441.2
677.3,38982.4
676.9,39505.9
676.5,38982.4
676.1,39117.6
675.7,39576.5
675.3,38967.6
674.9,39585.3
674.5,38802.9
674.1,39914.7
673.7,39320.6
673.3,39508.8
672.9,39067.6
672.5,39632.4
672.1,39561.8
671.7,39114.7
671.3,39291.2
670.9,39570.6
670.5,39482.4
670.1,39785.3
669.7,38723.5
669.3,39832.4
668.9,38955.9
668.5,39414.7
668.1,39450
667.7,39455.9
667.3,39623.5
666.9,39408.8
666.5,39205.9
666.1,40335.3
665.7,39508.8
665.3,39682.4
664.9,39944.1
664.5,39811.8
664.1,39764.7
663.7,40502.9
663.3,39997.1
662.9,39582.4
662.5,40064.7
662.1,39432.4
661.7,39705.9
661.3,39655.9
660.9,40026.5
660.5,40285.3
660.1,39911.8
659.7,39964.7
659.3,39950
658.9,39591.2
658.5,40302.9
658.1,39482.4
657.7,40223.5
657.3,40088.2
656.9,39797.1
656.5,39711.8
656.1,40076.5
655.7,40414.7
655.3,39511.8
654.9,40455.9
654.5,40400
654.1,40079.4
653.7,39755.9
653.3,40214.7
652.9,39758.8
652.5,40020.6
652.1,39782.4
651.7,40676.5
651.3,39841.2
650.9,40076.5
650.5,40270.6
650.1,40088.2
649.7,40555.9
649.3,40002.9
648.9,40461.8
648.5,40708.8
648.1,41173.5
647.7,41114.7
647.3,40632.4
646.9,40826.5
646.5,40738.2
646.1,42138.2
645.7,41194.1
645.3,41223.5
644.9,41017.6
644.5,41626.5
644.1,41641.2
643.7,41244.1
643.3,42126.5
642.9,41838.2
642.5,42029.4
642.1,41164.7
641.7,41332.4
641.3,41426.5
640.9,41364.7
640.5,41911.8
640.1,40932.4
639.7,41185.3
639.3,40750
638.9,40961.8
638.5,40744.1
638.1,40570.6
637.7,41282.4
637.3,40700
636.9,40935.3
636.5,40500
636.1,40211.8
635.7,40576.5
635.3,40600
634.9,40947.1
634.5,40094.1
634.1,40402.9
633.7,41017.6
633.3,40573.5
632.9,40538.2
632.5,40485.3
632.1,40779.4
631.7,40576.5
631.3,40376.5
630.9,40820.6
630.5,40114.7
630.1,41108.8
629.7,40055.9
629.3,41029.4
628.9,40470.6
628.5,41188.2
628.1,40717.6
627.7,40850
627.3,40241.2
626.9,40894.1
626.5,41288.2
626.1,40823.5
625.7,40941.2
625.3,40279.4
624.9,40329.4
624.5,40388.2
624.1,40500
623.7,41205.9
623.3,40961.8
622.9,40747.1
622.5,40826.5
622.1,40988.2
621.7,40632.4
621.3,40697.1
620.9,41864.7
620.5,41161.8
620.1,40391.2
619.7,41655.9
619.3,40667.6
618.9,41141.2
618.5,41494.1
618.1,41205.9
617.7,40938.2
617.3,41082.4
616.9,41332.4
616.5,41126.5
616.1,40991.2
615.7,41885.3
615.3,41000
614.9,41217.6
614.5,41041.2
614.1,40752.9
613.7,40905.9
613.3,41811.8
612.9,41047.1
612.5,41567.6
612.1,40741.2
611.7,41108.8
611.3,41173.5
610.9,41582.4
610.5,41711.8
610.1,41376.5
609.7,41488.2
609.3,42058.8
608.9,42076.5
608.5,41361.8
608.1,41673.5
607.7,41264.7
607.3,41617.6
606.9,41882.4
606.5,42073.5
606.1,42126.5
605.7,41155.9
605.3,41223.5
604.9,41747.1
604.5,41755.9
604.1,41808.8
603.7,41679.4
603.3,41652.9
602.9,42070.6
602.5,41938.2
602.1,42226.5
601.7,41900
601.3,42250
600.9,42202.9
600.5,42061.8
600.1,42844.1
599.7,41552.9
599.3,42138.2
598.9,41991.2
598.5,42041.2
598.1,42311.8
597.7,42741.2
597.3,42361.8
596.9,42388.2
596.5,42294.1
596.1,42402.9
595.7,42229.4
595.3,42147.1
594.9,42870.6
594.5,42982.4
594.1,42241.2
593.7,42247.1
593.3,42173.5
592.9,42205.9
592.5,42064.7
592.1,42029.4
591.7,42708.8
591.3,42370.6
590.9,42661.8
590.5,42091.2
590.1,42729.4
589.7,43285.3
589.3,42476.5
588.9,43364.7
588.5,43250
588.1,43326.5
587.7,43332.4
587.3,43329.4
586.9,42776.5
586.5,42855.9
586.1,43320.6
585.7,42476.5
585.3,43302.9
584.9,43152.9
584.5,43100
584.1,43238.2
583.7,43108.8
583.3,42888.2
582.9,42735.3
582.5,43364.7
582.1,42794.1
581.7,42985.3
581.3,42494.1
580.9,43529.4
580.5,42767.6
580.1,43223.5
579.7,42526.5
579.3,43852.9
578.9,43655.9
578.5,43073.5
578.1,43132.4
577.7,43291.2
577.3,43173.5
576.9,43085.3
576.5,43935.3
576.1,43511.8
575.7,43308.8
575.3,43726.5
574.9,43341.2
574.5,43885.3
574.1,43514.7
573.7,44061.8
573.3,43138.2
572.9,43414.7
572.5,44052.9
572.1,43729.4
571.7,43429.4
571.3,43620.6
570.9,44711.8
570.5,43564.7
570.1,43461.8
569.7,43579.4
569.3,44067.6
568.9,43529.4
568.5,43244.1
568.1,43650
567.7,43441.2
567.3,43747.1
566.9,43470.6
566.5,43652.9
566.1,43076.5
565.7,43802.9
565.3,43002.9
564.9,43697.1
564.5,43844.1
564.1,44226.5
563.7,43329.4
563.3,43508.8
562.9,43650
562.5,43102.9
562.1,43297.1
561.7,43750
561.3,44073.5
560.9,43197.1
560.5,42805.9
560.1,43773.5
559.7,43776.5
559.3,43905.9
558.9,43470.6
558.5,43582.4
558.1,43838.2
557.7,43282.4
557.3,44167.6
556.9,43629.4
556.5,43711.8
556.1,43926.5
555.7,43508.8
555.3,43644.1
554.9,44132.4
554.5,44270.6
554.1,44100
553.7,43900
553.3,43773.5
552.9,43967.6
552.5,44147.1
552.1,43802.9
551.7,44208.8
551.3,44544.1
550.9,45044.1
550.5,44417.6
550.1,44958.8
549.7,44991.2
549.3,46302.9
548.9,46794.1
548.5,47294.1
548.1,47300
547.7,47091.2
547.3,48626.5
546.9,49035.3
546.5,49035.3
546.1,48838.2
545.7,47905.9
545.3,48126.5
544.9,46650
544.5,45547.1
544.1,45214.7
543.7,43867.6
543.3,43488.2
542.9,42611.8
542.5,42017.6
542.1,42188.2
541.7,41647.1
541.3,41144.1
540.9,40670.6
540.5,40605.9
540.1,40867.6
539.7,40082.4
539.3,40250
538.9,39944.1
538.5,40164.7
538.1,39541.2
537.7,39976.5
537.3,39502.9
536.9,40200
536.5,39455.9
536.1,39720.6
535.7,40132.4
535.3,40782.4
534.9,41905.9
534.5,43929.4
534.1,47735.3
533.7,52370.6
533.3,58794.1
532.9,62938.2
532.5,63538.2
532.1,57364.7
531.7,50461.8
531.3,44976.5
530.9,42661.8
530.5,40902.9
530.1,40467.6
529.7,39979.4
529.3,39655.9
528.9,39905.9
528.5,39226.5
528.1,39597.1
527.7,39576.5
527.3,39126.5
526.9,39602.9
526.5,39285.3
526.1,38764.7
525.7,39885.3
525.3,39417.6
524.9,39123.5
524.5,38773.5
524.1,39329.4
523.7,39294.1
523.3,39202.9
522.9,39152.9
522.5,38961.8
522.1,38932.4
521.7,39561.8
521.3,38835.3
520.9,38938.2
520.5,39379.4
520.1,39447.1
519.7,39061.8
519.3,39952.9
518.9,39452.9
518.5,39782.4
518.1,39914.7
517.7,39667.6
517.3,39544.1
516.9,39673.5
516.5,39282.4
516.1,39767.6
515.7,38961.8
515.3,39797.1
514.9,39955.9
514.5,40129.4
514.1,39285.3
513.7,39464.7
513.3,39711.8
512.9,39241.2
512.5,39467.6
512.1,40094.1
511.7,40444.1
511.3,39755.9
510.9,39567.6
510.5,39020.6
510.1,39947.1
509.7,40020.6
509.3,39885.3
508.9,39420.6
508.5,39755.9
508.1,39805.9
507.7,40208.8
507.3,39529.4
506.9,39488.2
506.5,39873.5
506.1,39620.6
505.7,40170.6
505.3,39700
504.9,40197.1
504.5,40020.6
504.1,40200
503.7,39926.5
503.3,40308.8
502.9,40179.4
502.5,40300
502.1,40373.5
501.7,40194.1
501.3,40626.5
500.9,40370.6
500.5,40764.7
500.1,40370.6
499.7,39847.1
499.3,40608.8
498.9,41008.8
498.5,40744.1
498.1,40261.8
497.7,41076.5
497.3,40847.1
496.9,40520.6
496.5,40026.5
496.1,40123.5
495.7,40635.3
495.3,39847.1
494.9,40105.9
494.5,40352.9
494.1,40541.2
493.7,40755.9
493.3,40235.3
492.9,41002.9
492.5,40502.9
492.1,40755.9
491.7,40411.8
491.3,40402.9
490.9,40385.3
490.5,40223.5
490.1,41244.1
489.7,40888.2
489.3,40782.4
488.9,40873.5
488.5,41326.5
488.1,40858.8
487.7,41061.8
487.3,41529.4
486.9,40800
486.5,40732.4
486.1,40997.1
485.7,40982.4
485.3,40688.2
484.9,41276.5
484.5,41097.1
484.1,41038.2
483.7,41335.3
483.3,41041.2
482.9,41079.4
482.5,41097.1
482.1,40876.5
481.7,41435.3
481.3,40450
480.9,41932.4
480.5,41697.1
480.1,41300
479.7,41317.6
479.3,41338.2
478.9,42152.9
478.5,41361.8
478.1,42041.2
477.7,42217.6
477.3,41352.9
476.9,41350
476.5,41105.9
476.1,41629.4
475.7,41838.2
475.3,41550
474.9,42150
474.5,41350
474.1,41926.5
473.7,42070.6
473.3,41111.8
472.9,41379.4
472.5,41500
472.1,41135.3
471.7,42161.8
471.3,41770.6
470.9,41576.5
470.5,41767.6
470.1,41079.4
469.7,41314.7
469.3,41473.5
468.9,41802.9
468.5,41267.6
468.1,41605.9
467.7,41117.6
467.3,41547.1
466.9,41688.2
466.5,41291.2
466.1,42235.3
465.7,41650
465.3,42270.6
464.9,42482.4
464.5,41738.2
464.1,42576.5
463.7,42126.5
463.3,41997.1
462.9,42302.9
462.5,41350
462.1,42258.8
461.7,41805.9
461.3,41826.5
460.9,42508.8
460.5,42161.8
460.1,41670.6
459.7,42161.8
459.3,42488.2
458.9,42102.9
458.5,42091.2
458.1,42776.5
457.7,42544.1
457.3,41858.8
456.9,41638.2
456.5,41914.7
456.1,42247.1
455.7,42067.6
455.3,41944.1
454.9,42361.8
454.5,42408.8
454.1,42594.1
453.7,42514.7
453.3,42358.8
452.9,42344.1
452.5,42044.1
452.1,42279.4
451.7,42929.4
451.3,43135.3
450.9,42217.6
450.5,43058.8
450.1,42776.5
449.7,42541.2
449.3,42302.9
448.9,42094.1
448.5,42694.1
448.1,43582.4
447.7,42305.9
447.3,42729.4
446.9,42676.5
446.5,43332.4
446.1,42961.8
445.7,42608.8
445.3,42523.5
444.9,42529.4
444.5,42150
444.1,43352.9
443.7,42479.4
443.3,42720.6
442.9,43144.1
442.5,42541.2
442.1,43455.9
441.7,43100
441.3,44520.6
440.9,43885.3
440.5,43967.6
440.1,44514.7
439.7,43885.3
439.3,44026.5
438.9,43955.9
438.5,43779.4
438.1,43020.6
437.7,43155.9
437.3,43205.9
436.9,42764.7
436.5,43900
436.1,43808.8
435.7,43102.9
435.3,43676.5
434.9,43573.5
434.5,43238.2
434.1,43482.4
433.7,43282.4
433.3,43026.5
432.9,43197.1
432.5,43232.4
432.1,43185.3
431.7,43164.7
431.3,43717.6
430.9,43335.3
430.5,43217.6
430.1,42908.8
429.7,43750
429.3,43032.4
428.9,43029.4
428.5,43441.2
428.1,43023.5
427.7,43002.9
427.3,43270.6
426.9,43673.5
426.5,43302.9
426.1,43002.9
425.7,42926.5
425.3,43285.3
424.9,43517.6
424.5,43608.8
424.1,43500
423.7,43838.2
423.3,43197.1
422.9,43579.4
422.5,43205.9
422.1,44032.4
421.7,43335.3
421.3,43391.2
420.9,43538.2
420.5,43329.4
420.1,43541.2
419.7,43752.9
419.3,43435.3
418.9,43717.6
418.5,43614.7
418.1,43658.8
417.7,44067.6
417.3,42958.8
416.9,43932.4
416.5,43544.1
416.1,43767.6
415.7,43867.6
415.3,43964.7
414.9,43761.8
414.5,44423.5
414.1,43864.7
413.7,44464.7
413.3,44008.8
412.9,44152.9
412.5,44155.9
412.1,43773.5
411.7,43985.3
411.3,42964.7
410.9,43291.2
410.5,43788.2
410.1,44247.1
409.7,43364.7
409.3,44205.9
408.9,43920.6
408.5,43632.4
408.1,43379.4
407.7,44179.4
407.3,44155.9
406.9,43520.6
406.5,43779.4
406.1,44123.5
405.7,43941.2
405.3,44200
404.9,43947.1
404.5,44102.9
404.1,44844.1
403.7,44755.9
403.3,45285.3
402.9,46150
402.5,45467.6
402.1,45967.6
401.7,44714.7
401.3,44261.8
400.9,45261.8
400.5,44620.6
400.1,45650
399.7,46182.4
399.3,46329.4
398.9,46226.5
398.5,45120.6
398.1,44511.8
397.7,44326.5
397.3,44714.7
396.9,44500
396.5,44217.6
396.1,44008.8
395.7,43947.1
395.3,43979.4
394.9,44050
394.5,44491.2
394.1,43823.5
393.7,44650
393.3,43844.1
392.9,44585.3
392.5,44067.6
392.1,44373.5
391.7,43582.4
391.3,44391.2
390.9,44055.9
390.5,44897.1
390.1,43741.2
389.7,44226.5
389.3,44955.9
388.9,43308.8
388.5,44658.8
388.1,43738.2
387.7,44505.9
387.3,44726.5
386.9,44044.1
386.5,44505.9
386.1,44526.5
385.7,44252.9
385.3,44526.5
384.9,44150
384.5,44452.9
384.1,44350
383.7,43732.4
383.3,44097.1
382.9,43485.3
382.5,44382.4
382.1,44585.3
381.7,44085.3
381.3,44473.5
380.9,43914.7
380.5,44411.8
380.1,43297.1
379.7,43738.2
379.3,44779.4
378.9,44770.6
378.5,44473.5
378.1,44438.2
377.7,44570.6
377.3,44391.2
376.9,45073.5
376.5,45091.2
376.1,44591.2
375.7,44394.1
375.3,44588.2
374.9,45185.3
374.5,45450
374.1,45200
373.7,44885.3
373.3,44485.3
372.9,44402.9
372.5,44211.8
372.1,44126.5
371.7,44335.3
371.3,44038.2
370.9,44179.4
370.5,44317.6
370.1,43497.1
369.7,43455.9
369.3,43970.6
368.9,44038.2
368.5,44473.5
368.1,44323.5
367.7,44758.8
367.3,44432.4
366.9,43247.1
366.5,43332.4
366.1,42985.3
365.7,42917.6
365.3,43341.2
364.9,43094.1
364.5,43194.1
364.1,42485.3
363.7,42179.4
363.3,42441.2
362.9,42382.4
362.5,42550
362.1,42455.9
361.7,43467.6
361.3,42611.8
360.9,42617.6
360.5,42197.1
360.1,43014.7
359.7,43011.8
359.3,43585.3
358.9,43379.4
358.5,43747.1
358.1,43785.3
357.7,44597.1
357.3,44302.9
356.9,45476.5
356.5,46194.1
356.1,46264.7
355.7,47800
355.3,49079.4
354.9,50382.4
354.5,51061.8
354.1,52314.7
353.7,53491.2
353.3,53979.4
352.9,54894.1
352.5,53791.2
352.1,52526.5
351.7,51044.1
351.3,48000
350.9,46417.6
350.5,45764.7
350.1,44052.9
349.7,43108.8
349.3,43855.9
348.9,44176.5
348.5,43826.5
348.1,42917.6
347.7,40417.6
347.3,39132.4
346.9,37394.1
346.5,37158.8
346.1,36791.2
345.7,36558.8
345.3,36470.6
344.9,36176.5
344.5,35700
344.1,35482.4
343.7,35276.5
343.3,35582.4
342.9,35482.4
342.5,35561.8
342.1,35879.4
341.7,35902.9
341.3,36035.3
340.9,35700
340.5,36438.2
340.1,36261.8
339.7,37332.4
339.3,37885.3
338.9,38338.2
338.5,40067.6
338.1,41570.6
337.7,43505.9
337.3,44664.7
336.9,47114.7
336.5,49061.8
336.1,52282.4
335.7,53435.3
335.3,54076.5
334.9,53426.5
334.5,51794.1
334.1,49717.6
333.7,46788.2
333.3,44391.2
332.9,41794.1
332.5,39929.4
332.1,37847.1
331.7,36797.1
331.3,35964.7
330.9,34335.3
330.5,33402.9
330.1,33208.8
329.7,31838.2
329.3,31879.4
328.9,31226.5
328.5,30976.5
328.1,31064.7
327.7,29947.1
327.3,30379.4
326.9,30297.1
326.5,29370.6
326.1,29567.6
325.7,30076.5
325.3,29105.9
324.9,29944.1
324.5,29444.1
324.1,29544.1
323.7,29079.4
323.3,29161.8
322.9,28970.6
322.5,28841.2
322.1,29502.9
321.7,28941.2
321.3,29147.1
320.9,28973.5
320.5,29341.2
320.1,28408.8
319.7,29502.9
319.3,29323.5
318.9,29435.3
318.5,28938.2
318.1,28891.2
317.7,28885.3
317.3,29344.1
316.9,28794.1
316.5,28961.8
316.1,29450
315.7,29408.8
315.3,28723.5
314.9,29400
314.5,29435.3
314.1,29020.6
313.7,29132.4
313.3,29164.7
312.9,29000
312.5,29726.5
312.1,29473.5
311.7,29644.1
311.3,29123.5
310.9,29276.5
310.5,29797.1
310.1,28994.1
309.7,29500
309.3,29164.7
308.9,30052.9
308.5,29547.1
308.1,29952.9
307.7,30141.2
307.3,29741.2
306.9,30005.9
306.5,29817.6
306.1,30258.8
305.7,29382.4
305.3,30505.9
304.9,29358.8
304.5,30091.2
304.1,29517.6
303.7,29444.1
303.3,29473.5
302.9,29055.9
302.5,28805.9
302.1,28594.1
301.7,28261.8
301.3,28088.2
300.9,28435.3
300.5,28338.2
300.1,27261.8
299.7,27729.4
299.3,27694.1
298.9,26902.9
298.5,27302.9
298.1,26867.6
297.7,26358.8
297.3,26355.9
296.9,26170.6
296.5,25955.9
296.1,25744.1
295.7,25761.8
295.3,25438.2
294.9,25458.8
294.5,25773.5
294.1,25908.8
293.7,26138.2
293.3,26935.3
292.9,27329.4
292.5,26511.8
292.1,25932.4
291.7,25652.9
291.3,24885.3
290.9,25726.5
290.5,26535.3
290.1,27679.4
289.7,27908.8
289.3,27620.6
288.9,27755.9
288.5,28252.9
288.1,29902.9
287.7,34320.6
287.3,42691.2
286.9,54741.2
286.5,69252.9
286.1,78267.6
285.7,76829.4
285.3,63902.9
284.9,49229.4
284.5,38194.1
284.1,31979.4
283.7,29597.1
283.3,26982.4
282.9,26135.3
282.5,25547.1
282.1,24867.6
281.7,24582.4
281.3,25000
280.9,24202.9
280.5,24129.4
280.1,24376.5
279.7,23479.4
279.3,23358.8
278.9,23855.9
278.5,23947.1
278.1,23750
277.7,24247.1
277.3,23770.6
276.9,23882.4
276.5,24020.6
276.1,24017.6
275.7,24088.2
275.3,23811.8
274.9,24135.3
274.5,23564.7
274.1,24105.9
273.7,23917.6
273.3,24073.5
272.9,24282.4
272.5,24179.4
272.1,23802.9
271.7,23779.4
271.3,23844.1
270.9,23702.9
270.5,24352.9
270.1,24144.1
269.7,24217.6
269.3,24500
268.9,24102.9
268.5,24102.9
268.1,24429.4
267.7,23770.6
267.3,23794.1
266.9,24258.8
266.5,24326.5
266.1,24447.1
265.7,24373.5
265.3,24300
264.9,24373.5
264.5,24011.8
264.1,24226.5
263.7,24405.9
263.3,23829.4
262.9,23973.5
262.5,23823.5
262.1,24064.7
261.7,24402.9
261.3,24450
260.9,24532.4
260.5,24411.8
260.1,24261.8
259.7,24167.6
259.3,24188.2
258.9,24432.4
258.5,24123.5
258.1,24394.1
257.7,24517.6
257.3,24876.5
256.9,24373.5
256.5,24608.8
256.1,24929.4
255.7,24705.9
255.3,24500
254.9,24591.2
254.5,24750
254.1,24502.9
253.7,24358.8
253.3,24458.8
252.9,24855.9
252.5,24338.2
252.1,24317.6
251.7,24252.9
251.3,24541.2
250.9,24429.4
250.5,24338.2
250.1,24620.6
249.7,24441.2
249.3,24917.6
248.9,24426.5
248.5,24073.5
248.1,24285.3
247.7,24741.2
247.3,24258.8
246.9,24723.5
246.5,25094.1
246.1,24688.2
245.7,24482.4
245.3,24497.1
244.9,24485.3
244.5,24532.4
244.1,24300
243.7,24461.8
243.3,24211.8
242.9,24576.5
242.5,24705.9
242.1,24726.5
241.7,24411.8
241.3,24064.7
240.9,24408.8
240.5,24576.5
240.1,24614.7
239.7,24788.2
239.3,24782.4
238.9,24500
238.5,24576.5
238.1,24802.9
237.7,24617.6
237.3,24532.4
236.9,25067.6
236.5,24720.6
236.1,25155.9
235.7,24879.4
235.3,25076.5
234.9,25323.5
234.5,25929.4
234.1,25764.7
233.7,26408.8
233.3,26979.4
232.9,27094.1
232.5,25976.5
232.1,26135.3
231.7,25923.5
231.3,25508.8
230.9,25161.8
230.5,24750
230.1,24752.9
229.7,24941.2
229.3,24794.1
228.9,24923.5
228.5,25082.4
228.1,24938.2
227.7,25250
227.3,24952.9
226.9,24891.2
226.5,24755.9
226.1,25611.8
225.7,25020.6
225.3,25591.2
224.9,25285.3
224.5,24250
224.1,24691.2
223.7,25008.8
223.3,25020.6
222.9,24705.9
222.5,24697.1
222.1,24935.3
221.7,25041.2
221.3,25094.1
220.9,25085.3
220.5,24720.6
220.1,24779.4
219.7,24876.5
219.3,24882.4
218.9,24379.4
218.5,24811.8
218.1,24505.9
217.7,25126.5
217.3,24823.5
216.9,25014.7
216.5,23997.1
216.1,25544.1
215.7,24935.3
215.3,25082.4
214.9,24873.5
214.5,24723.5
214.1,24605.9
213.7,24732.4
213.3,25050
212.9,24594.1
212.5,24929.4
212.1,24744.1
211.7,25002.9
211.3,25097.1
210.9,24735.3
210.5,25376.5
210.1,25717.6
209.7,24538.2
209.3,24520.6
208.9,24473.5
208.5,25008.8
208.1,24961.8
207.7,25094.1
207.3,25079.4
206.9,25191.2
206.5,24744.1
206.1,24770.6
205.7,24902.9
205.3,24838.2
204.9,24744.1
204.5,24973.5
204.1,24720.6
203.7,24855.9
203.3,24691.2
202.9,24852.9
202.5,24732.4
202.1,24994.1
201.7,25179.4
201.3,25050
200.9,25067.6
200.5,25085.3
200.1,25573.5
199.7,25179.4
199.3,25300
198.9,25947.1
198.5,25132.4
198.1,25179.4
197.7,24867.6
197.3,25288.2
196.9,24741.2
196.5,25244.1
196.1,24667.6
195.7,25223.5
195.3,25494.1
194.9,24811.8
194.5,25211.8
194.1,25117.6
193.7,25188.2
193.3,25061.8
192.9,24985.3
192.5,25035.3
192.1,24776.5
191.7,24750
191.3,25326.5
190.9,25282.4
190.5,24617.6
190.1,25279.4
189.7,25379.4
189.3,24467.6
188.9,24791.2
188.5,25655.9
188.1,25000
187.7,25264.7
187.3,25232.4
186.9,25358.8
186.5,24947.1
186.1,25123.5
185.7,24964.7
185.3,25320.6
184.9,25244.1
184.5,25355.9
184.1,25417.6
183.7,25102.9
183.3,24482.4
182.9,24523.5
182.5,25144.1
182.1,24902.9
181.7,25176.5
181.3,24732.4
180.9,24844.1
180.5,24988.2
180.1,24588.2
179.7,24579.4
179.3,25732.4
178.9,24979.4
178.5,24950
178.1,24961.8
177.7,25082.4
177.3,24717.6
176.9,24650
176.5,24973.5
176.1,24791.2
175.7,25044.1
175.3,24750
174.9,24629.4
174.5,24905.9
174.1,24814.7
173.7,24773.5
173.3,25132.4
172.9,24952.9
172.5,24476.5
172.1,24805.9
171.7,25008.8
171.3,25794.1
170.9,26600
170.5,26838.2
170.1,28523.5
169.7,28838.2
169.3,28752.9
168.9,28247.1
168.5,27285.3
168.1,26064.7
167.7,25058.8
167.3,25147.1
166.9,24464.7
166.5,24676.5
166.1,24791.2
165.7,25064.7
165.3,24932.4
164.9,25232.4
164.5,24817.6
164.1,25247.1
163.7,25161.8
163.3,25320.6
162.9,25305.9
162.5,25267.6
162.1,25161.8
161.7,24835.3
161.3,25123.5
160.9,25052.9
160.5,25267.6
160.1,24644.1
159.7,24405.9
159.3,24488.2
158.9,24608.8
158.5,24447.1
158.1,24129.4
157.7,25088.2
157.3,23844.1
156.9,24255.9
156.5,24229.4
156.1,24726.5
155.7,24267.6
155.3,24920.6
154.9,24897.1
154.5,25305.9
154.1,24561.8
153.7,24802.9
153.3,24655.9
152.9,24511.8
152.5,24702.9
152.1,25011.8
151.7,24573.5
151.3,24338.2
150.9,24408.8
150.5,24270.6
150.1,24438.2
149.7,24414.7
149.3,24458.8
148.9,24664.7
148.5,24505.9
148.1,23932.4
147.7,24270.6
147.3,24314.7
146.9,24241.2
146.5,24276.5
146.1,24588.2
145.7,24538.2
145.3,24955.9
144.9,24279.4
144.5,24161.8
144.1,24741.2
143.7,23994.1
143.3,24350
142.9,24664.7
142.5,24258.8
142.1,24623.5
141.7,24432.4
141.3,24223.5
140.9,23888.2
140.5,24423.5
140.1,24276.5
139.7,24238.2
139.3,24261.8
138.9,23682.4
138.5,24250
138.1,24138.2
137.7,23882.4
137.3,23911.8
136.9,24067.6
136.5,24570.6
136.1,24261.8
135.7,24523.5
135.3,24547.1
134.9,24032.4
134.5,24094.1
134.1,23920.6
133.7,24229.4
133.3,23964.7
132.9,24061.8
132.5,24167.6
132.1,23688.2
131.7,23714.7
131.3,23779.4
130.9,23614.7
130.5,24041.2
130.1,23700
129.7,23841.2
129.3,24155.9
128.9,23514.7
128.5,23435.3
128.1,23641.2
127.7,23820.6
127.3,23702.9
126.9,23897.1
126.5,23402.9
126.1,23561.8
125.7,23258.8
125.3,23673.5
124.9,23564.7
124.5,23438.2
124.1,23802.9
123.7,23529.4
123.3,23694.1
122.9,23667.6
122.5,23670.6
122.1,23070.6
121.7,23852.9
121.3,23723.5
120.9,23211.8
120.5,23261.8
120.1,23570.6
119.7,23794.1
119.3,23658.8
118.9,23317.6
118.5,23255.9
118.1,23208.8
117.7,23008.8
117.3,23047.1
116.9,23388.2
116.5,23332.4
116.1,23238.2
115.7,23532.4
115.3,23791.2
114.9,23591.2
114.5,23611.8
114.1,23485.3
113.7,24123.5
113.3,23964.7
112.9,24073.5
112.5,24344.1
112.1,24117.6
111.7,24526.5
111.3,24017.6
110.9,23864.7
110.5,24350
110.1,24294.1
109.7,24247.1
109.3,24205.9
108.9,24258.8
108.5,23917.6
108.1,23973.5
107.7,23794.1
107.3,22867.6
106.9,23667.6
106.5,22867.6
106.1,23379.4
105.7,22955.9
105.3,21976.5
104.9,22344.1
104.5,22405.9
104.1,21847.1
103.7,22194.1
103.3,21614.7
102.9,21741.2
102.5,21255.9
102.1,20700
101.7,20497.1
101.3,20223.5
100.9,19847.1
100.5,19464.7
100.1,18938.2
99.7,18955.9
99.3,19058.8
98.9,18344.1
98.5,18211.8
98.1,17647.1
97.7,17400
97.3,16985.3
96.9,15952.9
96.5,16076.5
96.1,15758.8
95.7,15241.2
95.3,14952.9
94.9,15008.8
94.5,14694.1
94.1,14738.2
93.7,14411.8
93.3,14076.5
92.9,13879.4
92.5,14408.8
92.1,13982.4
91.7,13902.9
91.3,14741.2
90.9,15305.9
90.5,16108.8
90.1,17885.3
89.7,19958.8
89.3,23670.6
88.9,30629.4
88.5,43391.2
88.1,58955.9
87.7,66244.1
87.3,60744.1
86.9,43038.2
86.5,26708.8
86.1,22511.8
85.7,24897.1
85.3,32302.9
84.9,46167.6
84.5,65523.5
84.1,78832.4
83.7,72520.6
83.3,49564.7
82.9,25923.5
82.5,13844.1
82.1,9864.71
81.7,8670.59
81.3,8044.12
80.9,7314.71
80.5,6888.24
80.1,6538.24
79.7,6267.65
79.3,5929.41
78.9,5770.59
78.5,5491.18
78.1,5682.35
77.7,5532.35
77.3,5241.18
76.9,5300
76.5,5229.41
76.1,5432.35
75.7,5479.41
75.3,5408.82
74.9,5576.47
74.5,5517.65
74.1,5585.29
73.7,5426.47
73.3,5488.24
72.9,5267.65
72.5,5041.18
72.1,5035.29
71.7,4952.94
71.3,4861.76
70.9,4938.24
70.5,4605.88
70.1,4729.41
69.7,4538.24
69.3,4370.59
68.9,4464.71
68.5,4385.29
68.1,4450
67.7,4291.18
67.3,4114.71
66.9,4473.53
66.5,4126.47
66.1,4197.06
65.7,4232.35
65.3,4379.41
64.9,4335.29
64.5,4452.94
64.1,4500
63.7,4211.76
63.3,4414.71
62.9,4152.94
62.5,4420.59
62.1,4485.29
61.7,4538.24
61.3,4447.06
60.9,4729.41
60.5,4582.35
60.1,4947.06
59.7,5244.12
59.3,5279.41
58.9,5414.71
58.5,5402.94
58.1,5811.76
57.7,5761.76
57.3,5841.18
56.9,5873.53
56.5,5814.71
56.1,5635.29
55.7,5452.94
55.3,5164.71
54.9,4967.65
54.5,4744.12
54.1,4632.35
53.7,4558.82
53.3,4435.29
52.9,4288.24
52.5,3973.53
52.1,3844.12
51.7,3961.76
51.3,3741.18
50.9,3602.94
50.5,3529.41
50.1,3500
49.7,3476.47
49.3,3297.06
48.9,3158.82
48.5,3514.71
48.1,3285.29
47.7,3302.94
47.3,3273.53
46.9,3411.76
46.5,3167.65
46.1,3517.65
45.7,3432.35
45.3,3429.41
44.9,3517.65
44.5,3320.59
44.1,3191.18
43.7,3220.59
43.3,3179.41
42.9,3250
42.5,3052.94
42.1,3035.29
41.7,3155.88
41.3,3052.94
40.9,3055.88
40.5,3070.59
40.1,3129.41
39.7,3079.41
39.3,3091.18
38.9,3261.76
38.5,3117.65
38.1,2938.24
37.7,3214.71
37.3,3217.65
36.9,3338.24
36.5,3491.18
36.1,3217.65
35.7,3329.41
35.3,3335.29
34.9,3370.59
34.5,3441.18
34.1,3535.29
33.7,3691.18
33.3,3402.94
32.9,3364.71
32.5,3258.82
32.1,3179.41
31.7,3317.65
31.3,3352.94
30.9,3185.29
30.5,3182.35
30.1,3094.12
29.7,3482.35
29.3,3111.76
28.9,3279.41
28.5,3355.88
28.1,3426.47
27.7,3294.12
27.3,3670.59
26.9,3929.41
26.5,3802.94
26.1,3538.24
25.7,3544.12
25.3,3150
24.9,3173.53
24.5,3041.18
24.1,2944.12
23.7,2750
23.3,2611.76
22.9,2444.12
22.5,2517.65
22.1,2526.47
21.7,2723.53
21.3,2591.18
20.9,2658.82
20.5,2726.47
20.1,2782.35
19.7,2688.24
19.3,2629.41
18.9,2805.88
18.5,2561.76
18.1,2541.18
17.7,2547.06
17.3,2367.65
16.9,2270.59
16.5,2391.18
16.1,2152.94
15.7,2202.94
15.3,2294.12
14.9,2308.82
14.5,2155.88
14.1,2223.53
13.7,1879.41
13.3,1967.65
12.9,1944.12
12.5,1991.18
12.1,2117.65
11.7,2132.35
11.3,1944.12
10.9,2082.35
10.5,2182.35
10.1,2094.12
9.7,1967.65
9.3,2067.65
8.9,2197.06
8.5,2505.88
8.1,3326.47
7.7,3938.24
7.3,5097.06
6.9,5558.82
6.5,6391.18
6.1,6179.41
5.7,6044.12
5.3,5894.12
4.9,5688.24
4.5,5929.41
4.1,6538.24
3.7,6732.35
3.3,6402.94
2.9,5717.65
2.5,4902.94
2.1,3502.94
1.7,2361.76
1.3,1573.53
0.9,1158.82
0.5,973.529
0.1,591.176
-0.3,450
-0.7,379.412
