,
,
Characteristic Energy eV,1486.6
BE_Sur1 1,CPS_Sur1 1
1398.5,26747.6
1398.1,27602.4
1397.7,27445.2
1397.3,27571.4
1396.9,27635.7
1396.5,27673.8
1396.1,27359.5
1395.7,27176.2
1395.3,27338.1
1394.9,27190.5
1394.5,27438.1
1394.1,27350
1393.7,26954.8
1393.3,27078.6
1392.9,26569
1392.5,27276.2
1392.1,27419
1391.7,27109.5
1391.3,27116.7
1390.9,27114.3
1390.5,26731
1390.1,27354.8
1389.7,27216.7
1389.3,27116.7
1388.9,27126.2
1388.5,26642.9
1388.1,26645.2
1387.7,26954.8
1387.3,27190.5
1386.9,26988.1
1386.5,27095.2
1386.1,26557.1
1385.7,26783.3
1385.3,26842.9
1384.9,26192.9
1384.5,26854.8
1384.1,26561.9
1383.7,26554.8
1383.3,26497.6
1382.9,26547.6
1382.5,26288.1
1382.1,26938.1
1381.7,26747.6
1381.3,26497.6
1380.9,26485.7
1380.5,26783.3
1380.1,26114.3
1379.7,26109.5
1379.3,26507.1
1378.9,26178.6
1378.5,26488.1
1378.1,26316.7
1377.7,26650
1377.3,26333.3
1376.9,26271.4
1376.5,26016.7
1376.1,26061.9
1375.7,26026.2
1375.3,25973.8
1374.9,26214.3
1374.5,26083.3
1374.1,25807.1
1373.7,25771.4
1373.3,25426.2
1372.9,26031
1372.5,25900
1372.1,25904.8
1371.7,25773.8
1371.3,25578.6
1370.9,25904.8
1370.5,25611.9
1370.1,25790.5
1369.7,25769
1369.3,26109.5
1368.9,25469
1368.5,25583.3
1368.1,24909.5
1367.7,26147.6
1367.3,25831
1366.9,25692.9
1366.5,24966.7
1366.1,26026.2
1365.7,25723.8
1365.3,25345.2
1364.9,25619
1364.5,25478.6
1364.1,24964.3
1363.7,25216.7
1363.3,25164.3
1362.9,25273.8
1362.5,25028.6
1362.1,25609.5
1361.7,25204.8
1361.3,25092.9
1360.9,25304.8
1360.5,25590.5
1360.1,24940.5
1359.7,25064.3
1359.3,25259.5
1358.9,25552.4
1358.5,25290.5
1358.1,24578.6
1357.7,24697.6
1357.3,25328.6
1356.9,25419
1356.5,24392.9
1356.1,25152.4
1355.7,24526.2
1355.3,25178.6
1354.9,24740.5
1354.5,25331
1354.1,24704.8
1353.7,24585.7
1353.3,25059.5
1352.9,24419
1352.5,24307.1
1352.1,24538.1
1351.7,24442.9
1351.3,24711.9
1350.9,25050
1350.5,24595.2
1350.1,24847.6
1349.7,24559.5
1349.3,24116.7
1348.9,24404.8
1348.5,24245.2
1348.1,24028.6
1347.7,24392.9
1347.3,24057.1
1346.9,24033.3
1346.5,24395.2
1346.1,23692.9
1345.7,23885.7
1345.3,23900
1344.9,24300
1344.5,24266.7
1344.1,24226.2
1343.7,23835.7
1343.3,24171.4
1342.9,24392.9
1342.5,24119
1342.1,24438.1
1341.7,24038.1
1341.3,24383.3
1340.9,24002.4
1340.5,24097.6
1340.1,24381
1339.7,24266.7
1339.3,24185.7
1338.9,24028.6
1338.5,24057.1
1338.1,23826.2
1337.7,23626.2
1337.3,23750
1336.9,23395.2
1336.5,23857.1
1336.1,23614.3
1335.7,23540.5
1335.3,23678.6
1334.9,23257.1
1334.5,23600
1334.1,23214.3
1333.7,23314.3
1333.3,23590.5
1332.9,23276.2
1332.5,23723.8
1332.1,23590.5
1331.7,23402.4
1331.3,23464.3
1330.9,23231
1330.5,22973.8
1330.1,23150
1329.7,23085.7
1329.3,23471.4
1328.9,22800
1328.5,22957.1
1328.1,23402.4
1327.7,23035.7
1327.3,23131
1326.9,23373.8
1326.5,23350
1326.1,23152.4
1325.7,23461.9
1325.3,23045.2
1324.9,23026.2
1324.5,23411.9
1324.1,22926.2
1323.7,23428.6
1323.3,22781
1322.9,23514.3
1322.5,23057.1
1322.1,23190.5
1321.7,23116.7
1321.3,22947.6
1320.9,23197.6
1320.5,22645.2
1320.1,23064.3
1319.7,23085.7
1319.3,23228.6
1318.9,22804.8
1318.5,22707.1
1318.1,23495.2
1317.7,22959.5
1317.3,22673.8
1316.9,22740.5
1316.5,23419
1316.1,22997.6
1315.7,22819
1315.3,22942.9
1314.9,22509.5
1314.5,22900
1314.1,23154.8
1313.7,22981
1313.3,22819
1312.9,22852.4
1312.5,23047.6
1312.1,23171.4
1311.7,22938.1
1311.3,22964.3
1310.9,22604.8
1310.5,22978.6
1310.1,23081
1309.7,22938.1
1309.3,22995.2
1308.9,22921.4
1308.5,23433.3
1308.1,22861.9
1307.7,23169
1307.3,22950
1306.9,22609.5
1306.5,23121.4
1306.1,22757.1
1305.7,22709.5
1305.3,23011.9
1304.9,22726.2
1304.5,22673.8
1304.1,23092.9
1303.7,22816.7
1303.3,22750
1302.9,23138.1
1302.5,22571.4
1302.1,23254.8
1301.7,23164.3
1301.3,23142.9
1300.9,23288.1
1300.5,23383.3
1300.1,23061.9
1299.7,23242.9
1299.3,22804.8
1298.9,23114.3
1298.5,22759.5
1298.1,22978.6
1297.7,22778.6
1297.3,23202.4
1296.9,23083.3
1296.5,23340.5
1296.1,23319
1295.7,23169
1295.3,22816.7
1294.9,23000
1294.5,23004.8
1294.1,22992.9
1293.7,23204.8
1293.3,23426.2
1292.9,23314.3
1292.5,23071.4
1292.1,23366.7
1291.7,23650
1291.3,23104.8
1290.9,22811.9
1290.5,23788.1
1290.1,23295.2
1289.7,23011.9
1289.3,23319
1288.9,22607.1
1288.5,23304.8
1288.1,23138.1
1287.7,23116.7
1287.3,23119
1286.9,23319
1286.5,23309.5
1286.1,23266.7
1285.7,23371.4
1285.3,23240.5
1284.9,23521.4
1284.5,23345.2
1284.1,23050
1283.7,23466.7
1283.3,23842.9
1282.9,23702.4
1282.5,23788.1
1282.1,23104.8
1281.7,23333.3
1281.3,23264.3
1280.9,23176.2
1280.5,23195.2
1280.1,23504.8
1279.7,23321.4
1279.3,23302.4
1278.9,23731
1278.5,23602.4
1278.1,23902.4
1277.7,23969
1277.3,23426.2
1276.9,23707.1
1276.5,24002.4
1276.1,23392.9
1275.7,23857.1
1275.3,24414.3
1274.9,23569
1274.5,23761.9
1274.1,23709.5
1273.7,23873.8
1273.3,23716.7
1272.9,23683.3
1272.5,23969
1272.1,23602.4
1271.7,23788.1
1271.3,23673.8
1270.9,23438.1
1270.5,23450
1270.1,24009.5
1269.7,23969
1269.3,24081
1268.9,24023.8
1268.5,23900
1268.1,24447.6
1267.7,24545.2
1267.3,24147.6
1266.9,24252.4
1266.5,24104.8
1266.1,24152.4
1265.7,24157.1
1265.3,24171.4
1264.9,24111.9
1264.5,23981
1264.1,24423.8
1263.7,24235.7
1263.3,24326.2
1262.9,24647.6
1262.5,24438.1
1262.1,23745.2
1261.7,23985.7
1261.3,24397.6
1260.9,24150
1260.5,23666.7
1260.1,24107.1
1259.7,24709.5
1259.3,24557.1
1258.9,24611.9
1258.5,24697.6
1258.1,24838.1
1257.7,24766.7
1257.3,24738.1
1256.9,24426.2
1256.5,24728.6
1256.1,24766.7
1255.7,24250
1255.3,24900
1254.9,24928.6
1254.5,24426.2
1254.1,24671.4
1253.7,24752.4
1253.3,24957.1
1252.9,24471.4
1252.5,24690.5
1252.1,24885.7
1251.7,24835.7
1251.3,24992.9
1250.9,24628.6
1250.5,24578.6
1250.1,25209.5
1249.7,24985.7
1249.3,25381
1248.9,25371.4
1248.5,25381
1248.1,25666.7
1247.7,25400
1247.3,25519
1246.9,25540.5
1246.5,25519
1246.1,25069
1245.7,26135.7
1245.3,25547.6
1244.9,25504.8
1244.5,25902.4
1244.1,25288.1
1243.7,25933.3
1243.3,25859.5
1242.9,25361.9
1242.5,25535.7
1242.1,25533.3
1241.7,25564.3
1241.3,25492.9
1240.9,25766.7
1240.5,25666.7
1240.1,25847.6
1239.7,25342.9
1239.3,26264.3
1238.9,25926.2
1238.5,26066.7
1238.1,25759.5
1237.7,25664.3
1237.3,25666.7
1236.9,26128.6
1236.5,26283.3
1236.1,25733.3
1235.7,25681
1235.3,26369
1234.9,26245.2
1234.5,26192.9
1234.1,26276.2
1233.7,26416.7
1233.3,26045.2
1232.9,25785.7
1232.5,26719
1232.1,26285.7
1231.7,26488.1
1231.3,26895.2
1230.9,26364.3
1230.5,26800
1230.1,26507.1
1229.7,26933.3
1229.3,26940.5
1228.9,27473.8
1228.5,27126.2
1228.1,27250
1227.7,27019
1227.3,27073.8
1226.9,26833.3
1226.5,26940.5
1226.1,27164.3
1225.7,27250
1225.3,27221.4
1224.9,27259.5
1224.5,27714.3
1224.1,26990.5
1223.7,27500
1223.3,27016.7
1222.9,27290.5
1222.5,27004.8
1222.1,27435.7
1221.7,26792.9
1221.3,26516.7
1220.9,26447.6
1220.5,26885.7
1220.1,26747.6
1219.7,26771.4
1219.3,26585.7
1218.9,26402.4
1218.5,26533.3
1218.1,26216.7
1217.7,25892.9
1217.3,26107.1
1216.9,25923.8
1216.5,25509.5
1216.1,25747.6
1215.7,25538.1
1215.3,25566.7
1214.9,25635.7
1214.5,25452.4
1214.1,25366.7
1213.7,24888.1
1213.3,25595.2
1212.9,25281
1212.5,24983.3
1212.1,24954.8
1211.7,24957.1
1211.3,24364.3
1210.9,25073.8
1210.5,25061.9
1210.1,24878.6
1209.7,25197.6
1209.3,25061.9
1208.9,24966.7
1208.5,25269
1208.1,25033.3
1207.7,25238.1
1207.3,24852.4
1206.9,25304.8
1206.5,25011.9
1206.1,25128.6
1205.7,24992.9
1205.3,25521.4
1204.9,25273.8
1204.5,24976.2
1204.1,25433.3
1203.7,25171.4
1203.3,25326.2
1202.9,25431
1202.5,24654.8
1202.1,25131
1201.7,25364.3
1201.3,25383.3
1200.9,25111.9
1200.5,25190.5
1200.1,25469
1199.7,25114.3
1199.3,26000
1198.9,25673.8
1198.5,26045.2
1198.1,25383.3
1197.7,25709.5
1197.3,25523.8
1196.9,25578.6
1196.5,26154.8
1196.1,25326.2
1195.7,25642.9
1195.3,25688.1
1194.9,25431
1194.5,25771.4
1194.1,25854.8
1193.7,25519
1193.3,25652.4
1192.9,25533.3
1192.5,26004.8
1192.1,25573.8
1191.7,25564.3
1191.3,25947.6
1190.9,26109.5
1190.5,26076.2
1190.1,25750
1189.7,26145.2
1189.3,26269
1188.9,25931
1188.5,25666.7
1188.1,25942.9
1187.7,26142.9
1187.3,26092.9
1186.9,26242.9
1186.5,26264.3
1186.1,25869
1185.7,26033.3
1185.3,26016.7
1184.9,26657.1
1184.5,26371.4
1184.1,26623.8
1183.7,26800
1183.3,26647.6
1182.9,25876.2
1182.5,26445.2
1182.1,26378.6
1181.7,26457.1
1181.3,26481
1180.9,26461.9
1180.5,27104.8
1180.1,26692.9
1179.7,26407.1
1179.3,26459.5
1178.9,26869
1178.5,26445.2
1178.1,27176.2
1177.7,26357.1
1177.3,27061.9
1176.9,26933.3
1176.5,26811.9
1176.1,26626.2
1175.7,27169
1175.3,26733.3
1174.9,27104.8
1174.5,27011.9
1174.1,27247.6
1173.7,27059.5
1173.3,27302.4
1172.9,26811.9
1172.5,27009.5
1172.1,27757.1
1171.7,27602.4
1171.3,27428.6
1170.9,26911.9
1170.5,27069
1170.1,27047.6
1169.7,27295.2
1169.3,26976.2
1168.9,27157.1
1168.5,27395.2
1168.1,26985.7
1167.7,27240.5
1167.3,27581
1166.9,27464.3
1166.5,27659.5
1166.1,28000
1165.7,27526.2
1165.3,27709.5
1164.9,27547.6
1164.5,27766.7
1164.1,27623.8
1163.7,27438.1
1163.3,27757.1
1162.9,27531
1162.5,27840.5
1162.1,28159.5
1161.7,27504.8
1161.3,28381
1160.9,27414.3
1160.5,27390.5
1160.1,27711.9
1159.7,27481
1159.3,28085.7
1158.9,27183.3
1158.5,27664.3
1158.1,28133.3
1157.7,28290.5
1157.3,28102.4
1156.9,27800
1156.5,28200
1156.1,27781
1155.7,28090.5
1155.3,28392.9
1154.9,28076.2
1154.5,28135.7
1154.1,28514.3
1153.7,28245.2
1153.3,28114.3
1152.9,28188.1
1152.5,28569
1152.1,28252.4
1151.7,28545.2
1151.3,28452.4
1150.9,28552.4
1150.5,28231
1150.1,27985.7
1149.7,28695.2
1149.3,28409.5
1148.9,29152.4
1148.5,28452.4
1148.1,28883.3
1147.7,28426.2
1147.3,28738.1
1146.9,28995.2
1146.5,29173.8
1146.1,28673.8
1145.7,29042.9
1145.3,28604.8
1144.9,29457.1
1144.5,28519
1144.1,29045.2
1143.7,29104.8
1143.3,28864.3
1142.9,28938.1
1142.5,29119
1142.1,28557.1
1141.7,28900
1141.3,28961.9
1140.9,29757.1
1140.5,29283.3
1140.1,28892.9
1139.7,29026.2
1139.3,28983.3
1138.9,29457.1
1138.5,29454.8
1138.1,29595.2
1137.7,29490.5
1137.3,29588.1
1136.9,29204.8
1136.5,29466.7
1136.1,29095.2
1135.7,29895.2
1135.3,29721.4
1134.9,29488.1
1134.5,29647.6
1134.1,29447.6
1133.7,29516.7
1133.3,29711.9
1132.9,29681
1132.5,29566.7
1132.1,29795.2
1131.7,29969
1131.3,29688.1
1130.9,29669
1130.5,29635.7
1130.1,29664.3
1129.7,29802.4
1129.3,29635.7
1128.9,30559.5
1128.5,29954.8
1128.1,30069
1127.7,29697.6
1127.3,29883.3
1126.9,30511.9
1126.5,30528.6
1126.1,30347.6
1125.7,30085.7
1125.3,30285.7
1124.9,29681
1124.5,30666.7
1124.1,30331
1123.7,30078.6
1123.3,30109.5
1122.9,30059.5
1122.5,30092.9
1122.1,30335.7
1121.7,30490.5
1121.3,31142.9
1120.9,30676.2
1120.5,30333.3
1120.1,30652.4
1119.7,30450
1119.3,31088.1
1118.9,30507.1
1118.5,30531
1118.1,31102.4
1117.7,30385.7
1117.3,30773.8
1116.9,30709.5
1116.5,30607.1
1116.1,30557.1
1115.7,30321.4
1115.3,30897.6
1114.9,30681
1114.5,31164.3
1114.1,30281
1113.7,30440.5
1113.3,30864.3
1112.9,30747.6
1112.5,30971.4
1112.1,31083.3
1111.7,30676.2
1111.3,31550
1110.9,30545.2
1110.5,30945.2
1110.1,31023.8
1109.7,30926.2
1109.3,31135.7
1108.9,31023.8
1108.5,31607.1
1108.1,31357.1
1107.7,31557.1
1107.3,31476.2
1106.9,30978.6
1106.5,31671.4
1106.1,31566.7
1105.7,31214.3
1105.3,31311.9
1104.9,31552.4
1104.5,31740.5
1104.1,32131
1103.7,31661.9
1103.3,31754.8
1102.9,31657.1
1102.5,31307.1
1102.1,31273.8
1101.7,31245.2
1101.3,31211.9
1100.9,31716.7
1100.5,31654.8
1100.1,31669
1099.7,31640.5
1099.3,31685.7
1098.9,31564.3
1098.5,31588.1
1098.1,31347.6
1097.7,32023.8
1097.3,31438.1
1096.9,31871.4
1096.5,32178.6
1096.1,31416.7
1095.7,31678.6
1095.3,31252.4
1094.9,31688.1
1094.5,31302.4
1094.1,31547.6
1093.7,31902.4
1093.3,31569
1092.9,31557.1
1092.5,31828.6
1092.1,31307.1
1091.7,31402.4
1091.3,31259.5
1090.9,31261.9
1090.5,31131
1090.1,31161.9
1089.7,31021.4
1089.3,31069
1088.9,31281
1088.5,31181
1088.1,31073.8
1087.7,31188.1
1087.3,30840.5
1086.9,31261.9
1086.5,31081
1086.1,31383.3
1085.7,31116.7
1085.3,31490.5
1084.9,31581
1084.5,31502.4
1084.1,31135.7
1083.7,31209.5
1083.3,30842.9
1082.9,31645.2
1082.5,31797.6
1082.1,31526.2
1081.7,31850
1081.3,31509.5
1080.9,32100
1080.5,31614.3
1080.1,31438.1
1079.7,32016.7
1079.3,31631
1078.9,32173.8
1078.5,31609.5
1078.1,31738.1
1077.7,31871.4
1077.3,32054.8
1076.9,31461.9
1076.5,31795.2
1076.1,31966.7
1075.7,31995.2
1075.3,31697.6
1074.9,32064.3
1074.5,31235.7
1074.1,32135.7
1073.7,32035.7
1073.3,31773.8
1072.9,32095.2
1072.5,32419
1072.1,31807.1
1071.7,31664.3
1071.3,32576.2
1070.9,32681
1070.5,32440.5
1070.1,31928.6
1069.7,32781
1069.3,33050
1068.9,31952.4
1068.5,32683.3
1068.1,32554.8
1067.7,32123.8
1067.3,32623.8
1066.9,32933.3
1066.5,32335.7
1066.1,33133.3
1065.7,33019
1065.3,32523.8
1064.9,33100
1064.5,32376.2
1064.1,32292.9
1063.7,33126.2
1063.3,32728.6
1062.9,32952.4
1062.5,32892.9
1062.1,33152.4
1061.7,32595.2
1061.3,33140.5
1060.9,33461.9
1060.5,33050
1060.1,32666.7
1059.7,33264.3
1059.3,33238.1
1058.9,33261.9
1058.5,33145.2
1058.1,32664.3
1057.7,33459.5
1057.3,33288.1
1056.9,33264.3
1056.5,33364.3
1056.1,33207.1
1055.7,33185.7
1055.3,33335.7
1054.9,33319
1054.5,33511.9
1054.1,33485.7
1053.7,33431
1053.3,33731
1052.9,34190.5
1052.5,33545.2
1052.1,33240.5
1051.7,33716.7
1051.3,33828.6
1050.9,33633.3
1050.5,34031
1050.1,34209.5
1049.7,33971.4
1049.3,33542.9
1048.9,33866.7
1048.5,34209.5
1048.1,34145.2
1047.7,34259.5
1047.3,34152.4
1046.9,34138.1
1046.5,34388.1
1046.1,34311.9
1045.7,34164.3
1045.3,34188.1
1044.9,34297.6
1044.5,34250
1044.1,34026.2
1043.7,34635.7
1043.3,34419
1042.9,34769
1042.5,34342.9
1042.1,34873.8
1041.7,34702.4
1041.3,34852.4
1040.9,34592.9
1040.5,34902.4
1040.1,34459.5
1039.7,35131
1039.3,34838.1
1038.9,34364.3
1038.5,35092.9
1038.1,35073.8
1037.7,34390.5
1037.3,34857.1
1036.9,35500
1036.5,35147.6
1036.1,35023.8
1035.7,35188.1
1035.3,35133.3
1034.9,34883.3
1034.5,35478.6
1034.1,34883.3
1033.7,35288.1
1033.3,35164.3
1032.9,35361.9
1032.5,35142.9
1032.1,35057.1
1031.7,35000
1031.3,35342.9
1030.9,35392.9
1030.5,35666.7
1030.1,35704.8
1029.7,35616.7
1029.3,35081
1028.9,35721.4
1028.5,36061.9
1028.1,35338.1
1027.7,35792.9
1027.3,35702.4
1026.9,35600
1026.5,36111.9
1026.1,36173.8
1025.7,35892.9
1025.3,35690.5
1024.9,35802.4
1024.5,36109.5
1024.1,36419
1023.7,36628.6
1023.3,35871.4
1022.9,35552.4
1022.5,36307.1
1022.1,36197.6
1021.7,36600
1021.3,36378.6
1020.9,35981
1020.5,36509.5
1020.1,36104.8
1019.7,36804.8
1019.3,36045.2
1018.9,36559.5
1018.5,36411.9
1018.1,36935.7
1017.7,36561.9
1017.3,36250
1016.9,36185.7
1016.5,36935.7
1016.1,36523.8
1015.7,37019
1015.3,36104.8
1014.9,36638.1
1014.5,36402.4
1014.1,36942.9
1013.7,36842.9
1013.3,37209.5
1012.9,36964.3
1012.5,36864.3
1012.1,37200
1011.7,37147.6
1011.3,36709.5
1010.9,36776.2
1010.5,37042.9
1010.1,37183.3
1009.7,37295.2
1009.3,36971.4
1008.9,37166.7
1008.5,37026.2
1008.1,37538.1
1007.7,37000
1007.3,37219
1006.9,37559.5
1006.5,36628.6
1006.1,37666.7
1005.7,37059.5
1005.3,38042.9
1004.9,37997.6
1004.5,38019
1004.1,37271.4
1003.7,37719
1003.3,37578.6
1002.9,37826.2
1002.5,38159.5
1002.1,38038.1
1001.7,38138.1
1001.3,38026.2
1000.9,38392.9
1000.5,38435.7
1000.1,38397.6
999.7,38311.9
999.3,37531
998.9,38078.6
998.5,37859.5
998.1,38104.8
997.7,38009.5
997.3,38478.6
996.9,38309.5
996.5,38809.5
996.1,38131
995.7,38121.4
995.3,37940.5
994.9,38533.3
994.5,37783.3
994.1,37561.9
993.7,38142.9
993.3,37840.5
992.9,37659.5
992.5,38854.8
992.1,38226.2
991.7,38164.3
991.3,37854.8
990.9,37573.8
990.5,37366.7
990.1,37431
989.7,37631
989.3,38019
988.9,37426.2
988.5,37445.2
988.1,37478.6
987.7,37790.5
987.3,37278.6
986.9,37635.7
986.5,37659.5
986.1,37669
985.7,37583.3
985.3,38016.7
984.9,37507.1
984.5,38433.3
984.1,37450
983.7,37719
983.3,37623.8
982.9,38211.9
982.5,38135.7
982.1,38566.7
981.7,38735.7
981.3,38728.6
980.9,39445.2
980.5,40033.3
980.1,40061.9
979.7,39383.3
979.3,40111.9
978.9,40288.1
978.5,39907.1
978.1,40085.7
977.7,40573.8
977.3,41090.5
976.9,40331
976.5,40869
976.1,40902.4
975.7,40935.7
975.3,40033.3
974.9,39661.9
974.5,40357.1
974.1,39783.3
973.7,39740.5
973.3,39323.8
972.9,39383.3
972.5,38728.6
972.1,38221.4
971.7,38095.2
971.3,38071.4
970.9,38138.1
970.5,38283.3
970.1,37452.4
969.7,37261.9
969.3,37064.3
968.9,36569
968.5,36219
968.1,36747.6
967.7,36273.8
967.3,36240.5
966.9,35573.8
966.5,36669
966.1,35878.6
965.7,35607.1
965.3,35407.1
964.9,35890.5
964.5,35359.5
964.1,35545.2
963.7,36228.6
963.3,36195.2
962.9,36764.3
962.5,37376.2
962.1,37395.2
961.7,37242.9
961.3,37500
960.9,36566.7
960.5,36757.1
960.1,36114.3
959.7,35357.1
959.3,35921.4
958.9,35352.4
958.5,35054.8
958.1,35602.4
957.7,35138.1
957.3,34990.5
956.9,34947.6
956.5,34547.6
956.1,35233.3
955.7,35321.4
955.3,35750
954.9,35888.1
954.5,36842.9
954.1,36907.1
953.7,38009.5
953.3,36878.6
952.9,37521.4
952.5,38195.2
952.1,38250
951.7,39600
951.3,40328.6
950.9,39416.7
950.5,37557.1
950.1,34740.5
949.7,33721.4
949.3,33071.4
948.9,33271.4
948.5,32781
948.1,32197.6
947.7,32431
947.3,31985.7
946.9,32492.9
946.5,32111.9
946.1,32452.4
945.7,32690.5
945.3,32411.9
944.9,33028.6
944.5,33492.9
944.1,33728.6
943.7,34181
943.3,34533.3
942.9,34557.1
942.5,34254.8
942.1,33540.5
941.7,33673.8
941.3,33876.2
940.9,33481
940.5,33719
940.1,33000
939.7,32114.3
939.3,32552.4
938.9,31807.1
938.5,31954.8
938.1,32111.9
937.7,31935.7
937.3,31790.5
936.9,31528.6
936.5,31873.8
936.1,32554.8
935.7,33273.8
935.3,33950
934.9,35097.6
934.5,36635.7
934.1,36802.4
933.7,38328.6
933.3,37559.5
932.9,37842.9
932.5,38688.1
932.1,41542.9
931.7,45688.1
931.3,46776.2
930.9,42997.6
930.5,36152.4
930.1,32719
929.7,30950
929.3,30047.6
928.9,29490.5
928.5,29252.4
928.1,29126.2
927.7,28954.8
927.3,29126.2
926.9,28392.9
926.5,29228.6
926.1,28652.4
925.7,28619
925.3,28169
924.9,28588.1
924.5,28504.8
924.1,28361.9
923.7,28500
923.3,28373.8
922.9,29254.8
922.5,28719
922.1,28247.6
921.7,28540.5
921.3,28540.5
920.9,29104.8
920.5,29154.8
920.1,29173.8
919.7,28507.1
919.3,28319
918.9,28954.8
918.5,28592.9
918.1,28928.6
917.7,28942.9
917.3,28552.4
916.9,28585.7
916.5,29164.3
916.1,29464.3
915.7,29254.8
915.3,28940.5
914.9,28833.3
914.5,29131
914.1,29426.2
913.7,28938.1
913.3,29400
912.9,29104.8
912.5,28952.4
912.1,29214.3
911.7,29547.6
911.3,29169
910.9,29614.3
910.5,29057.1
910.1,29333.3
909.7,29097.6
909.3,29476.2
908.9,29085.7
908.5,29283.3
908.1,29397.6
907.7,29357.1
907.3,29666.7
906.9,29454.8
906.5,29726.2
906.1,29809.5
905.7,29997.6
905.3,29814.3
904.9,29764.3
904.5,29747.6
904.1,30035.7
903.7,30185.7
903.3,30007.1
902.9,29438.1
902.5,29311.9
902.1,29654.8
901.7,29959.5
901.3,30471.4
900.9,29790.5
900.5,29407.1
900.1,30081
899.7,29676.2
899.3,30640.5
898.9,30457.1
898.5,30788.1
898.1,30111.9
897.7,30128.6
897.3,30200
896.9,30352.4
896.5,29926.2
896.1,30809.5
895.7,30052.4
895.3,30538.1
894.9,30581
894.5,30490.5
894.1,30731
893.7,30416.7
893.3,30395.2
892.9,30728.6
892.5,30233.3
892.1,30331
891.7,30581
891.3,30957.1
890.9,30590.5
890.5,30623.8
890.1,30592.9
889.7,30728.6
889.3,30990.5
888.9,30883.3
888.5,30728.6
888.1,31042.9
887.7,31321.4
887.3,31316.7
886.9,30969
886.5,31176.2
886.1,31154.8
885.7,31402.4
885.3,31459.5
884.9,31454.8
884.5,31283.3
884.1,31469
883.7,31411.9
883.3,31542.9
882.9,31811.9
882.5,32150
882.1,31552.4
881.7,31597.6
881.3,32240.5
880.9,31504.8
880.5,32569
880.1,32504.8
879.7,31964.3
879.3,32150
878.9,32076.2
878.5,31888.1
878.1,32240.5
877.7,31847.6
877.3,32238.1
876.9,31897.6
876.5,32228.6
876.1,31969
875.7,31995.2
875.3,31785.7
874.9,31361.9
874.5,31845.2
874.1,31638.1
873.7,32021.4
873.3,32271.4
872.9,32085.7
872.5,31904.8
872.1,32078.6
871.7,32033.3
871.3,31871.4
870.9,31942.9
870.5,32219
870.1,32066.7
869.7,31819
869.3,32002.4
868.9,31747.6
868.5,31850
868.1,32235.7
867.7,32138.1
867.3,31995.2
866.9,32716.7
866.5,32576.2
866.1,32214.3
865.7,32595.2
865.3,32569
864.9,32397.6
864.5,33057.1
864.1,33309.5
863.7,33292.9
863.3,33709.5
862.9,33919
862.5,33490.5
862.1,34376.2
861.7,34333.3
861.3,34100
860.9,34188.1
860.5,34778.6
860.1,34464.3
859.7,34383.3
859.3,34504.8
858.9,34195.2
858.5,33821.4
858.1,34233.3
857.7,33735.7
857.3,33773.8
856.9,33226.2
856.5,33881
856.1,33283.3
855.7,33933.3
855.3,34071.4
854.9,33700
854.5,33685.7
854.1,33523.8
853.7,33564.3
853.3,33540.5
852.9,33564.3
852.5,33821.4
852.1,34002.4
851.7,33845.2
851.3,32847.6
850.9,33278.6
850.5,33523.8
850.1,32735.7
849.7,33321.4
849.3,32983.3
848.9,32716.7
848.5,32995.2
848.1,32971.4
847.7,32690.5
847.3,32557.1
846.9,32423.8
846.5,32650
846.1,32183.3
845.7,32302.4
845.3,32307.1
844.9,32697.6
844.5,32197.6
844.1,32304.8
843.7,32154.8
843.3,33171.4
842.9,32611.9
842.5,32569
842.1,33552.4
841.7,32695.2
841.3,32619
840.9,33188.1
840.5,32588.1
840.1,33469
839.7,33883.3
839.3,33542.9
838.9,34016.7
838.5,33816.7
838.1,34581
837.7,34714.3
837.3,35716.7
836.9,35795.2
836.5,36800
836.1,37040.5
835.7,37959.5
835.3,38381
834.9,38509.5
834.5,39573.8
834.1,39971.4
833.7,40009.5
833.3,40871.4
832.9,39916.7
832.5,39592.9
832.1,39471.4
831.7,38204.8
831.3,37545.2
830.9,36700
830.5,37283.3
830.1,35945.2
829.7,36302.4
829.3,35295.2
828.9,35369
828.5,35304.8
828.1,35373.8
827.7,35197.6
827.3,35002.4
826.9,34952.4
826.5,33952.4
826.1,34181
825.7,34050
825.3,33388.1
824.9,33388.1
824.5,32200
824.1,32200
823.7,32026.2
823.3,31326.2
822.9,31542.9
822.5,31383.3
822.1,30745.2
821.7,31023.8
821.3,30892.9
820.9,31047.6
820.5,30604.8
820.1,30014.3
819.7,30978.6
819.3,31335.7
818.9,30383.3
818.5,30469
818.1,30738.1
817.7,31159.5
817.3,30502.4
816.9,30340.5
816.5,30483.3
816.1,30823.8
815.7,30831
815.3,30476.2
814.9,30669
814.5,30788.1
814.1,30790.5
813.7,30521.4
813.3,30716.7
812.9,30485.7
812.5,31040.5
812.1,30557.1
811.7,30607.1
811.3,30890.5
810.9,30950
810.5,30095.2
810.1,31176.2
809.7,31071.4
809.3,30752.4
808.9,30802.4
808.5,30811.9
808.1,30678.6
807.7,30383.3
807.3,31114.3
806.9,30833.3
806.5,30583.3
806.1,30838.1
805.7,30388.1
805.3,31211.9
804.9,31252.4
804.5,31307.1
804.1,30628.6
803.7,30826.2
803.3,30947.6
802.9,30919
802.5,30850
802.1,31085.7
801.7,30900
801.3,31031
800.9,31752.4
800.5,30611.9
800.1,31292.9
799.7,30854.8
799.3,31185.7
798.9,31042.9
798.5,31164.3
798.1,31728.6
797.7,30988.1
797.3,31554.8
796.9,30728.6
796.5,31673.8
796.1,31197.6
795.7,31176.2
795.3,31307.1
794.9,31709.5
794.5,31309.5
794.1,31504.8
793.7,31047.6
793.3,31533.3
792.9,31483.3
792.5,31854.8
792.1,31188.1
791.7,32035.7
791.3,31931
790.9,31595.2
790.5,31790.5
790.1,31459.5
789.7,31907.1
789.3,31733.3
788.9,31976.2
788.5,31750
788.1,31702.4
787.7,31857.1
787.3,32254.8
786.9,32261.9
786.5,32321.4
786.1,32040.5
785.7,32085.7
785.3,31740.5
784.9,31961.9
784.5,32638.1
784.1,32271.4
783.7,32261.9
783.3,32535.7
782.9,32266.7
782.5,32500
782.1,31985.7
781.7,32173.8
781.3,32131
780.9,32454.8
780.5,32352.4
780.1,32171.4
779.7,32126.2
779.3,32095.2
778.9,32397.6
778.5,32233.3
778.1,32578.6
777.7,32004.8
777.3,32428.6
776.9,32590.5
776.5,32340.5
776.1,32452.4
775.7,32476.2
775.3,33081
774.9,32566.7
774.5,32766.7
774.1,32500
773.7,32766.7
773.3,32714.3
772.9,32950
772.5,32690.5
772.1,32761.9
771.7,32971.4
771.3,33019
770.9,32833.3
770.5,32723.8
770.1,32981
769.7,32847.6
769.3,32704.8
768.9,32885.7
768.5,32588.1
768.1,32714.3
767.7,33142.9
767.3,33038.1
766.9,33059.5
766.5,32369
766.1,33231
765.7,33047.6
765.3,32500
764.9,33100
764.5,32904.8
764.1,32938.1
763.7,32866.7
763.3,33335.7
762.9,32990.5
762.5,32781
762.1,33261.9
761.7,32700
761.3,32785.7
760.9,33066.7
760.5,32783.3
760.1,33104.8
759.7,33838.1
759.3,33273.8
758.9,33671.4
758.5,33452.4
758.1,33557.1
757.7,33292.9
757.3,33569
756.9,32857.1
756.5,33742.9
756.1,33804.8
755.7,33942.9
755.3,33450
754.9,33602.4
754.5,33309.5
754.1,33540.5
753.7,33640.5
753.3,33861.9
752.9,33366.7
752.5,33383.3
752.1,33154.8
751.7,33273.8
751.3,33257.1
750.9,33183.3
750.5,33231
750.1,33507.1
749.7,33469
749.3,33583.3
748.9,33011.9
748.5,33142.9
748.1,33269
747.7,33457.1
747.3,33323.8
746.9,33885.7
746.5,33038.1
746.1,33545.2
745.7,33566.7
745.3,33073.8
744.9,33557.1
744.5,33721.4
744.1,33964.3
743.7,33476.2
743.3,33373.8
742.9,33321.4
742.5,33552.4
742.1,34057.1
741.7,33931
741.3,33404.8
740.9,33983.3
740.5,34159.5
740.1,33126.2
739.7,34350
739.3,33945.2
738.9,33771.4
738.5,33692.9
738.1,34061.9
737.7,33309.5
737.3,33892.9
736.9,34109.5
736.5,34238.1
736.1,33576.2
735.7,34528.6
735.3,33607.1
734.9,34000
734.5,34092.9
734.1,34164.3
733.7,33385.7
733.3,34038.1
732.9,33733.3
732.5,33971.4
732.1,33514.3
731.7,34392.9
731.3,33911.9
730.9,33773.8
730.5,33502.4
730.1,33878.6
729.7,33188.1
729.3,33566.7
728.9,33421.4
728.5,33171.4
728.1,33495.2
727.7,33395.2
727.3,33459.5
726.9,32923.8
726.5,33364.3
726.1,33421.4
725.7,33542.9
725.3,33481
724.9,33545.2
724.5,33747.6
724.1,34045.2
723.7,33578.6
723.3,33997.6
722.9,34073.8
722.5,34369
722.1,34407.1
721.7,34102.4
721.3,34466.7
720.9,34664.3
720.5,34700
720.1,34897.6
719.7,35140.5
719.3,34802.4
718.9,35469
718.5,35264.3
718.1,34485.7
717.7,35185.7
717.3,34881
716.9,35142.9
716.5,34838.1
716.1,35350
715.7,34626.2
715.3,35057.1
714.9,34850
714.5,34421.4
714.1,34973.8
713.7,34811.9
713.3,34788.1
712.9,34290.5
712.5,34892.9
712.1,33873.8
711.7,34342.9
711.3,34247.6
710.9,34007.1
710.5,33921.4
710.1,33202.4
709.7,33740.5
709.3,33985.7
708.9,32835.7
708.5,33654.8
708.1,32919
707.7,33078.6
707.3,33326.2
706.9,32728.6
706.5,33090.5
706.1,31695.2
705.7,31852.4
705.3,31371.4
704.9,31726.2
704.5,31016.7
704.1,30697.6
703.7,30690.5
703.3,31207.1
702.9,30611.9
702.5,30971.4
702.1,30609.5
701.7,30371.4
701.3,30685.7
700.9,30311.9
700.5,29571.4
700.1,29771.4
699.7,29681
699.3,28828.6
698.9,29090.5
698.5,28971.4
698.1,28461.9
697.7,28659.5
697.3,27990.5
696.9,27488.1
696.5,27626.2
696.1,27545.2
695.7,27021.4
695.3,27045.2
694.9,27123.8
694.5,26831
694.1,26871.4
693.7,27007.1
693.3,27185.7
692.9,26973.8
692.5,26840.5
692.1,27221.4
691.7,27669
691.3,27611.9
690.9,29709.5
690.5,31528.6
690.1,37440.5
689.7,46754.8
689.3,61726.2
688.9,80747.6
688.5,100440
688.1,107781
687.7,97111.9
687.3,75883.3
686.9,54559.5
686.5,40192.9
686.1,32811.9
685.7,30576.2
685.3,28509.5
684.9,28192.9
684.5,27483.3
684.1,26778.6
683.7,26266.7
683.3,26297.6
682.9,25897.6
682.5,26126.2
682.1,25216.7
681.7,25383.3
681.3,25438.1
680.9,25261.9
680.5,24847.6
680.1,25319
679.7,25378.6
679.3,25481
678.9,25195.2
678.5,25519
678.1,25047.6
677.7,25254.8
677.3,24857.1
676.9,25107.1
676.5,25461.9
676.1,24897.6
675.7,25350
675.3,25057.1
674.9,25261.9
674.5,24902.4
674.1,25050
673.7,24973.8
673.3,25276.2
672.9,25031
672.5,24935.7
672.1,25211.9
671.7,25288.1
671.3,25611.9
670.9,25140.5
670.5,25302.4
670.1,25004.8
669.7,25188.1
669.3,24702.4
668.9,25302.4
668.5,25064.3
668.1,24873.8
667.7,24831
667.3,24716.7
666.9,25400
666.5,25347.6
666.1,24742.9
665.7,24992.9
665.3,25316.7
664.9,24990.5
664.5,25069
664.1,25054.8
663.7,24850
663.3,25121.4
662.9,25178.6
662.5,25116.7
662.1,24945.2
661.7,24857.1
661.3,25028.6
660.9,25585.7
660.5,25131
660.1,25126.2
659.7,25226.2
659.3,24821.4
658.9,24885.7
658.5,24688.1
658.1,24761.9
657.7,25485.7
657.3,25221.4
656.9,24933.3
656.5,25338.1
656.1,25188.1
655.7,25119
655.3,24876.2
654.9,25369
654.5,24988.1
654.1,25269
653.7,24966.7
653.3,24495.2
652.9,25519
652.5,25081
652.1,25792.9
651.7,25033.3
651.3,25357.1
650.9,25504.8
650.5,26197.6
650.1,26364.3
649.7,26707.1
649.3,26704.8
648.9,26533.3
648.5,26633.3
648.1,26571.4
647.7,26819
647.3,26597.6
646.9,25757.1
646.5,25116.7
646.1,24809.5
645.7,24514.3
645.3,25023.8
644.9,24757.1
644.5,24319
644.1,24557.1
643.7,24304.8
643.3,24852.4
642.9,24642.9
642.5,24902.4
642.1,24359.5
641.7,25247.6
641.3,24911.9
640.9,24752.4
640.5,24607.1
640.1,24776.2
639.7,24242.9
639.3,24154.8
638.9,24121.4
638.5,23950
638.1,23571.4
637.7,23216.7
637.3,23592.9
636.9,23431
636.5,23302.4
636.1,22683.3
635.7,22923.8
635.3,23069
634.9,22904.8
634.5,22404.8
634.1,22902.4
633.7,22666.7
633.3,22454.8
632.9,22557.1
632.5,22414.3
632.1,22657.1
631.7,22790.5
631.3,22307.1
630.9,22752.4
630.5,22714.3
630.1,22516.7
629.7,22747.6
629.3,22690.5
628.9,22747.6
628.5,23114.3
628.1,22823.8
627.7,22726.2
627.3,22704.8
626.9,22442.9
626.5,22057.1
626.1,22461.9
625.7,22445.2
625.3,22254.8
624.9,21681
624.5,22007.1
624.1,22190.5
623.7,22114.3
623.3,22142.9
622.9,22088.1
622.5,22173.8
622.1,22004.8
621.7,22052.4
621.3,21897.6
620.9,22111.9
620.5,21845.2
620.1,21681
619.7,21190.5
619.3,22235.7
618.9,21985.7
618.5,21785.7
618.1,21842.9
617.7,21723.8
617.3,21726.2
616.9,21761.9
616.5,21414.3
616.1,21631
615.7,21645.2
615.3,21661.9
614.9,21590.5
614.5,22002.4
614.1,21521.4
613.7,21185.7
613.3,21192.9
612.9,21388.1
612.5,21888.1
612.1,21650
611.7,21909.5
611.3,21690.5
610.9,21221.4
610.5,21552.4
610.1,21626.2
609.7,21540.5
609.3,21600
608.9,22083.3
608.5,21350
608.1,21816.7
607.7,21878.6
607.3,21769
606.9,21614.3
606.5,21642.9
606.1,21940.5
605.7,21992.9
605.3,22111.9
604.9,21952.4
604.5,21861.9
604.1,21681
603.7,21726.2
603.3,21809.5
602.9,21892.9
602.5,22328.6
602.1,21823.8
601.7,22138.1
601.3,21857.1
600.9,21907.1
600.5,21971.4
600.1,21785.7
599.7,21509.5
599.3,21761.9
598.9,21564.3
598.5,21823.8
598.1,21959.5
597.7,22140.5
597.3,21988.1
596.9,22095.2
596.5,21954.8
596.1,21971.4
595.7,22357.1
595.3,21938.1
594.9,22157.1
594.5,21923.8
594.1,22238.1
593.7,22123.8
593.3,22519
592.9,22266.7
592.5,22042.9
592.1,21883.3
591.7,22097.6
591.3,22621.4
590.9,22395.2
590.5,22550
590.1,22209.5
589.7,22083.3
589.3,22257.1
588.9,21866.7
588.5,21954.8
588.1,21811.9
587.7,22031
587.3,21995.2
586.9,21995.2
586.5,22328.6
586.1,22042.9
585.7,22266.7
585.3,21814.3
584.9,21802.4
584.5,22147.6
584.1,21500
583.7,21697.6
583.3,21957.1
582.9,22052.4
582.5,21092.9
582.1,21088.1
581.7,21250
581.3,21373.8
580.9,21450
580.5,21509.5
580.1,21588.1
579.7,21323.8
579.3,21504.8
578.9,21761.9
578.5,21507.1
578.1,21400
577.7,21816.7
577.3,21550
576.9,22314.3
576.5,21816.7
576.1,22345.2
575.7,22216.7
575.3,22157.1
574.9,22602.4
574.5,22616.7
574.1,22709.5
573.7,23333.3
573.3,22757.1
572.9,23311.9
572.5,22709.5
572.1,22761.9
571.7,23276.2
571.3,23728.6
570.9,24119
570.5,24614.3
570.1,25376.2
569.7,26728.6
569.3,27111.9
568.9,27247.6
568.5,26031
568.1,25683.3
567.7,24533.3
567.3,23114.3
566.9,22247.6
566.5,22052.4
566.1,21281
565.7,20976.2
565.3,20161.9
564.9,19466.7
564.5,19842.9
564.1,19042.9
563.7,19195.2
563.3,18500
562.9,18764.3
562.5,18526.2
562.1,18259.5
561.7,17647.6
561.3,18157.1
560.9,17854.8
560.5,17728.6
560.1,17588.1
559.7,17697.6
559.3,17785.7
558.9,17585.7
558.5,17747.6
558.1,17895.2
557.7,18071.4
557.3,18111.9
556.9,17935.7
556.5,18154.8
556.1,18273.8
555.7,18700
555.3,18614.3
554.9,18347.6
554.5,18769
554.1,18952.4
553.7,18731
553.3,18485.7
552.9,18361.9
552.5,18711.9
552.1,18714.3
551.7,18754.8
551.3,18547.6
550.9,18602.4
550.5,18776.2
550.1,18697.6
549.7,18852.4
549.3,18754.8
548.9,18361.9
548.5,17723.8
548.1,17540.5
547.7,16890.5
547.3,16559.5
546.9,16050
546.5,15795.2
546.1,15914.3
545.7,15207.1
545.3,15147.6
544.9,14697.6
544.5,14297.6
544.1,14064.3
543.7,13759.5
543.3,13678.6
542.9,13285.7
542.5,13078.6
542.1,12509.5
541.7,12481
541.3,12242.9
540.9,11900
540.5,12014.3
540.1,11785.7
539.7,11126.2
539.3,10814.3
538.9,10490.5
538.5,10509.5
538.1,10847.6
537.7,10371.4
537.3,10376.2
536.9,10204.8
536.5,10311.9
536.1,10778.6
535.7,11011.9
535.3,11035.7
534.9,11378.6
534.5,12147.6
534.1,13609.5
533.7,17004.8
533.3,22516.7
532.9,32878.6
532.5,47857.1
532.1,60402.4
531.7,61638.1
531.3,52664.3
530.9,41002.4
530.5,33369
530.1,29428.6
529.7,25011.9
529.3,20809.5
528.9,16626.2
528.5,13857.1
528.1,11350
527.7,10857.1
527.3,9876.19
526.9,10071.4
526.5,9852.38
526.1,9771.43
525.7,9335.71
525.3,9185.71
524.9,9335.71
524.5,9135.71
524.1,8983.33
523.7,9159.52
523.3,9011.9
522.9,9269.05
522.5,9342.86
522.1,9185.71
521.7,9200
521.3,8714.29
520.9,9311.9
520.5,9169.05
520.1,8897.62
519.7,9002.38
519.3,9269.05
518.9,9421.43
518.5,9157.14
518.1,9190.48
517.7,9123.81
517.3,9128.57
516.9,8978.57
516.5,9219.05
516.1,9111.9
515.7,9185.71
515.3,9026.19
514.9,9140.48
514.5,9011.9
514.1,9338.1
513.7,9280.95
513.3,9388.1
512.9,9150
512.5,9278.57
512.1,9173.81
511.7,8800
511.3,9469.05
510.9,9145.24
510.5,9226.19
510.1,9204.76
509.7,9028.57
509.3,9207.14
508.9,9154.76
508.5,9033.33
508.1,9423.81
507.7,9176.19
507.3,9007.14
506.9,9221.43
506.5,9152.38
506.1,9290.48
505.7,9233.33
505.3,9292.86
504.9,9316.67
504.5,9309.52
504.1,9604.76
503.7,9173.81
503.3,9283.33
502.9,9316.67
502.5,9102.38
502.1,9207.14
501.7,9152.38
501.3,9166.67
500.9,9292.86
500.5,9188.1
500.1,9666.67
499.7,9578.57
499.3,9592.86
498.9,9678.57
498.5,9395.24
498.1,9109.52
497.7,9507.14
497.3,9369.05
496.9,9388.1
496.5,9492.86
496.1,9414.29
495.7,9495.24
495.3,9421.43
494.9,9242.86
494.5,9445.24
494.1,9700
493.7,9283.33
493.3,9266.67
492.9,9745.24
492.5,9388.1
492.1,9716.67
491.7,9597.62
491.3,9578.57
490.9,9623.81
490.5,9766.67
490.1,9454.76
489.7,9585.71
489.3,9607.14
488.9,9738.1
488.5,9538.1
488.1,9516.67
487.7,9607.14
487.3,9423.81
486.9,9709.52
486.5,9350
486.1,9735.71
485.7,9321.43
485.3,9688.1
484.9,9538.1
484.5,9721.43
484.1,9435.71
483.7,9876.19
483.3,9602.38
482.9,9847.62
482.5,9414.29
482.1,9533.33
481.7,9692.86
481.3,9561.9
480.9,9876.19
480.5,9878.57
480.1,9845.24
479.7,9840.48
479.3,9488.1
478.9,9671.43
478.5,9695.24
478.1,9983.33
477.7,9509.52
477.3,9635.71
476.9,9642.86
476.5,9654.76
476.1,9600
475.7,9685.71
475.3,9611.9
474.9,9926.19
474.5,9721.43
474.1,10011.9
473.7,9633.33
473.3,9873.81
472.9,10197.6
472.5,10057.1
472.1,9854.76
471.7,9509.52
471.3,9723.81
470.9,9750
470.5,9726.19
470.1,9783.33
469.7,9723.81
469.3,9678.57
468.9,9892.86
468.5,10154.8
468.1,9635.71
467.7,10040.5
467.3,9773.81
466.9,9966.67
466.5,9488.1
466.1,9883.33
465.7,10123.8
465.3,10059.5
464.9,10059.5
464.5,9902.38
464.1,9845.24
463.7,9842.86
463.3,10019
462.9,9833.33
462.5,9871.43
462.1,10121.4
461.7,9990.48
461.3,10164.3
460.9,9938.1
460.5,9600
460.1,9971.43
459.7,10088.1
459.3,10119
458.9,9823.81
458.5,9916.67
458.1,10200
457.7,9697.62
457.3,9866.67
456.9,9857.14
456.5,10116.7
456.1,10142.9
455.7,10123.8
455.3,9988.1
454.9,10033.3
454.5,10073.8
454.1,9857.14
453.7,10045.2
453.3,9828.57
452.9,10321.4
452.5,10097.6
452.1,10185.7
451.7,10159.5
451.3,10166.7
450.9,10266.7
450.5,10266.7
450.1,10023.8
449.7,10421.4
449.3,10259.5
448.9,10290.5
448.5,10190.5
448.1,10264.3
447.7,10497.6
447.3,10414.3
446.9,10209.5
446.5,10371.4
446.1,10059.5
445.7,10295.2
445.3,10238.1
444.9,10473.8
444.5,10233.3
444.1,10342.9
443.7,10321.4
443.3,10290.5
442.9,10481
442.5,10514.3
442.1,10285.7
441.7,10373.8
441.3,10402.4
440.9,10314.3
440.5,10238.1
440.1,10319
439.7,10659.5
439.3,10476.2
438.9,10483.3
438.5,10340.5
438.1,10350
437.7,10592.9
437.3,10300
436.9,10423.8
436.5,10319
436.1,10273.8
435.7,10238.1
435.3,10378.6
434.9,10295.2
434.5,10661.9
434.1,10597.6
433.7,10545.2
433.3,10488.1
432.9,10314.3
432.5,10569
432.1,10340.5
431.7,10490.5
431.3,10671.4
430.9,10276.2
430.5,10335.7
430.1,10502.4
429.7,10461.9
429.3,10761.9
428.9,10519
428.5,10738.1
428.1,10640.5
427.7,10740.5
427.3,10495.2
426.9,10700
426.5,10604.8
426.1,10709.5
425.7,10773.8
425.3,10819
424.9,10773.8
424.5,10647.6
424.1,10638.1
423.7,10504.8
423.3,10831
422.9,10859.5
422.5,10973.8
422.1,10766.7
421.7,10671.4
421.3,10502.4
420.9,10971.4
420.5,10619
420.1,10835.7
419.7,10619
419.3,10773.8
418.9,10728.6
418.5,10911.9
418.1,10802.4
417.7,10733.3
417.3,10731
416.9,10716.7
416.5,10904.8
416.1,10652.4
415.7,10576.2
415.3,10350
414.9,10323.8
414.5,10278.6
414.1,10473.8
413.7,10447.6
413.3,10540.5
412.9,10602.4
412.5,10245.2
412.1,10254.8
411.7,10495.2
411.3,10264.3
410.9,10116.7
410.5,10211.9
410.1,10038.1
409.7,10223.8
409.3,9940.48
408.9,10102.4
408.5,9952.38
408.1,9711.9
407.7,10090.5
407.3,9911.9
406.9,9750
406.5,9957.14
406.1,9978.57
405.7,9885.71
405.3,9952.38
404.9,10047.6
404.5,10038.1
404.1,10457.1
403.7,11026.2
403.3,11816.7
402.9,13428.6
402.5,16100
402.1,18154.8
401.7,17423.8
401.3,15292.9
400.9,12666.7
400.5,11790.5
400.1,12338.1
399.7,14254.8
399.3,16431
398.9,18183.3
398.5,18185.7
398.1,15526.2
397.7,12864.3
397.3,11247.6
396.9,10342.9
396.5,10107.1
396.1,9978.57
395.7,10200
395.3,10216.7
394.9,10173.8
394.5,9897.62
394.1,9850
393.7,10035.7
393.3,9888.1
392.9,9890.48
392.5,9666.67
392.1,10147.6
391.7,9897.62
391.3,9842.86
390.9,9826.19
390.5,9947.62
390.1,10183.3
389.7,9880.95
389.3,10050
388.9,10154.8
388.5,10097.6
388.1,10257.1
387.7,10116.7
387.3,10269
386.9,9966.67
386.5,10221.4
386.1,10195.2
385.7,9990.48
385.3,10216.7
384.9,10114.3
384.5,10095.2
384.1,10042.9
383.7,10357.1
383.3,10209.5
382.9,10071.4
382.5,10323.8
382.1,9978.57
381.7,10335.7
381.3,10083.3
380.9,10438.1
380.5,10342.9
380.1,10295.2
379.7,10185.7
379.3,10323.8
378.9,10204.8
378.5,10192.9
378.1,10238.1
377.7,10407.1
377.3,10150
376.9,10090.5
376.5,10159.5
376.1,10211.9
375.7,10392.9
375.3,10304.8
374.9,10114.3
374.5,10454.8
374.1,10421.4
373.7,10300
373.3,10300
372.9,10447.6
372.5,10795.2
372.1,10369
371.7,10459.5
371.3,10833.3
370.9,10216.7
370.5,10557.1
370.1,10221.4
369.7,10747.6
369.3,10461.9
368.9,10735.7
368.5,10485.7
368.1,10614.3
367.7,10578.6
367.3,11083.3
366.9,10645.2
366.5,10385.7
366.1,10561.9
365.7,10492.9
365.3,10654.8
364.9,10778.6
364.5,10504.8
364.1,10728.6
363.7,10373.8
363.3,10800
362.9,10645.2
362.5,10600
362.1,10709.5
361.7,10700
361.3,10564.3
360.9,10564.3
360.5,10828.6
360.1,11028.6
359.7,10845.2
359.3,10866.7
358.9,10750
358.5,10916.7
358.1,11028.6
357.7,10850
357.3,10897.6
356.9,10873.8
356.5,10828.6
356.1,10438.1
355.7,10923.8
355.3,11057.1
354.9,10623.8
354.5,11278.6
354.1,10766.7
353.7,11011.9
353.3,11064.3
352.9,11002.4
352.5,11126.2
352.1,11235.7
351.7,11147.6
351.3,11183.3
350.9,11023.8
350.5,11157.1
350.1,11042.9
349.7,11095.2
349.3,11226.2
348.9,11216.7
348.5,11047.6
348.1,11216.7
347.7,11145.2
347.3,11416.7
346.9,11281
346.5,11392.9
346.1,11328.6
345.7,11473.8
345.3,11026.2
344.9,11440.5
344.5,10804.8
344.1,11357.1
343.7,11476.2
343.3,11342.9
342.9,11571.4
342.5,11307.1
342.1,11057.1
341.7,11328.6
341.3,11269
340.9,11550
340.5,11535.7
340.1,11271.4
339.7,11273.8
339.3,11728.6
338.9,11364.3
338.5,11764.3
338.1,11428.6
337.7,11564.3
337.3,11450
336.9,11600
336.5,11759.5
336.1,11695.2
335.7,11416.7
335.3,11650
334.9,11738.1
334.5,11731
334.1,11695.2
333.7,11923.8
333.3,11990.5
332.9,11376.2
332.5,11828.6
332.1,11954.8
331.7,11604.8
331.3,11888.1
330.9,11864.3
330.5,12145.2
330.1,11826.2
329.7,11728.6
329.3,12021.4
328.9,11935.7
328.5,11969
328.1,11640.5
327.7,12052.4
327.3,12002.4
326.9,11952.4
326.5,11792.9
326.1,11919
325.7,11904.8
325.3,12042.9
324.9,11826.2
324.5,12261.9
324.1,12016.7
323.7,11735.7
323.3,11792.9
322.9,11995.2
322.5,12057.1
322.1,12540.5
321.7,12076.2
321.3,12152.4
320.9,12292.9
320.5,12304.8
320.1,12354.8
319.7,12395.2
319.3,12500
318.9,12547.6
318.5,12752.4
318.1,12573.8
317.7,12083.3
317.3,12376.2
316.9,12326.2
316.5,12476.2
316.1,12554.8
315.7,12281
315.3,12538.1
314.9,12595.2
314.5,12583.3
314.1,12611.9
313.7,12966.7
313.3,12652.4
312.9,13000
312.5,12859.5
312.1,12890.5
311.7,12850
311.3,12592.9
310.9,12814.3
310.5,13126.2
310.1,12804.8
309.7,12576.2
309.3,12657.1
308.9,12876.2
308.5,12628.6
308.1,13007.1
307.7,12938.1
307.3,12892.9
306.9,12895.2
306.5,12835.7
306.1,12983.3
305.7,13197.6
305.3,13202.4
304.9,12959.5
304.5,12707.1
304.1,12757.1
303.7,12609.5
303.3,12688.1
302.9,12192.9
302.5,12319
302.1,12183.3
301.7,12059.5
301.3,12252.4
300.9,11531
300.5,11611.9
300.1,11028.6
299.7,10988.1
299.3,10697.6
298.9,10376.2
298.5,10214.3
298.1,9988.1
297.7,10371.4
297.3,9992.86
296.9,9745.24
296.5,9723.81
296.1,9300
295.7,8997.62
295.3,8973.81
294.9,9085.71
294.5,8795.24
294.1,9219.05
293.7,10054.8
293.3,12002.4
292.9,14721.4
292.5,17495.2
292.1,17711.9
291.7,14959.5
291.3,11209.5
290.9,8988.1
290.5,8407.14
290.1,7947.62
289.7,8397.62
289.3,8511.9
288.9,9280.95
288.5,10202.4
288.1,11416.7
287.7,13354.8
287.3,16281
286.9,22150
286.5,30561.9
286.1,38511.9
285.7,42361.9
285.3,43757.1
284.9,46911.9
284.5,45385.7
284.1,39095.2
283.7,29988.1
283.3,21000
282.9,14754.8
282.5,10931
282.1,9326.19
281.7,8735.71
281.3,8252.38
280.9,8073.81
280.5,7919.05
280.1,7576.19
279.7,7476.19
279.3,7540.48
278.9,7095.24
278.5,7354.76
278.1,7109.52
277.7,6983.33
277.3,7195.24
276.9,7257.14
276.5,7280.95
276.1,7114.29
275.7,7111.9
275.3,6888.1
274.9,7366.67
274.5,7059.52
274.1,6819.05
273.7,7300
273.3,7276.19
272.9,7157.14
272.5,7028.57
272.1,7028.57
271.7,7000
271.3,7097.62
270.9,7164.29
270.5,7173.81
270.1,6840.48
269.7,7050
269.3,7159.52
268.9,7276.19
268.5,7373.81
268.1,7126.19
267.7,7242.86
267.3,7383.33
266.9,7266.67
266.5,7140.48
266.1,7164.29
265.7,7071.43
265.3,7030.95
264.9,7073.81
264.5,7159.52
264.1,7076.19
263.7,7202.38
263.3,7288.1
262.9,6911.9
262.5,7297.62
262.1,7128.57
261.7,7164.29
261.3,7230.95
260.9,7192.86
260.5,7147.62
260.1,7421.43
259.7,7147.62
259.3,7176.19
258.9,7376.19
258.5,7185.71
258.1,7480.95
257.7,7235.71
257.3,7252.38
256.9,7469.05
256.5,7523.81
256.1,7271.43
255.7,7519.05
255.3,7335.71
254.9,7361.9
254.5,7276.19
254.1,7423.81
253.7,7385.71
253.3,7273.81
252.9,7459.52
252.5,7309.52
252.1,7428.57
251.7,7480.95
251.3,7307.14
250.9,7273.81
250.5,7602.38
250.1,7178.57
249.7,7454.76
249.3,7342.86
248.9,7488.1
248.5,7395.24
248.1,7316.67
247.7,7288.1
247.3,7290.48
246.9,7480.95
246.5,7230.95
246.1,7254.76
245.7,7300
245.3,7080.95
244.9,7028.57
244.5,6907.14
244.1,6854.76
243.7,6964.29
243.3,7078.57
242.9,6764.29
242.5,6759.52
242.1,6778.57
241.7,6521.43
241.3,6719.05
240.9,6804.76
240.5,6719.05
240.1,6666.67
239.7,6816.67
239.3,6730.95
238.9,6888.1
238.5,6609.52
238.1,6683.33
237.7,6769.05
237.3,6919.05
236.9,7085.71
236.5,7161.9
236.1,7278.57
235.7,7495.24
235.3,7571.43
234.9,8245.24
234.5,8754.76
234.1,9780.95
233.7,11409.5
233.3,12435.7
232.9,13961.9
232.5,14695.2
232.1,14450
231.7,12919
231.3,11240.5
230.9,10419
230.5,9111.9
230.1,8685.71
229.7,7947.62
229.3,7738.1
228.9,7530.95
228.5,7171.43
228.1,7133.33
227.7,7209.52
227.3,6759.52
226.9,6959.52
226.5,6952.38
226.1,6876.19
225.7,6823.81
225.3,6609.52
224.9,6902.38
224.5,6776.19
224.1,6426.19
223.7,6533.33
223.3,6459.52
222.9,6561.9
222.5,6578.57
222.1,6571.43
221.7,6683.33
221.3,6502.38
220.9,6461.9
220.5,6561.9
220.1,6526.19
219.7,6645.24
219.3,6135.71
218.9,6611.9
218.5,6450
218.1,6573.81
217.7,6652.38
217.3,6530.95
216.9,6376.19
216.5,6380.95
216.1,6673.81
215.7,6495.24
215.3,6692.86
214.9,6495.24
214.5,6738.1
214.1,6447.62
213.7,6585.71
213.3,6583.33
212.9,6640.48
212.5,6730.95
212.1,6611.9
211.7,6630.95
211.3,6285.71
210.9,6907.14
210.5,6411.9
210.1,6783.33
209.7,6447.62
209.3,6630.95
208.9,6557.14
208.5,6866.67
208.1,6633.33
207.7,6397.62
207.3,6669.05
206.9,6690.48
206.5,6359.52
206.1,6576.19
205.7,6669.05
205.3,6440.48
204.9,6590.48
204.5,6430.95
204.1,6545.24
203.7,6688.1
203.3,6509.52
202.9,6592.86
202.5,6759.52
202.1,6671.43
201.7,6457.14
201.3,6588.1
200.9,6819.05
200.5,6728.57
200.1,6471.43
199.7,6685.71
199.3,6576.19
198.9,6766.67
198.5,6714.29
198.1,6673.81
197.7,6633.33
197.3,6785.71
196.9,6688.1
196.5,6661.9
196.1,6766.67
195.7,6680.95
195.3,6745.24
194.9,6792.86
194.5,6907.14
194.1,6885.71
193.7,6833.33
193.3,6985.71
192.9,6928.57
192.5,6871.43
192.1,6990.48
191.7,7042.86
191.3,6961.9
190.9,6985.71
190.5,7007.14
190.1,6840.48
189.7,7078.57
189.3,6857.14
188.9,6907.14
188.5,7090.48
188.1,6847.62
187.7,6790.48
187.3,6783.33
186.9,6857.14
186.5,6580.95
186.1,6733.33
185.7,6590.48
185.3,6688.1
184.9,6764.29
184.5,6666.67
184.1,6854.76
183.7,6409.52
183.3,6611.9
182.9,6459.52
182.5,6538.1
182.1,6421.43
181.7,6311.9
181.3,6323.81
180.9,6354.76
180.5,6050
180.1,5947.62
179.7,6050
179.3,5842.86
178.9,6161.9
178.5,5961.9
178.1,5928.57
177.7,5961.9
177.3,5761.9
176.9,5828.57
176.5,5564.29
176.1,5647.62
175.7,5304.76
175.3,5473.81
174.9,5433.33
174.5,5566.67
174.1,5571.43
173.7,5602.38
173.3,5357.14
172.9,5573.81
172.5,5616.67
172.1,5621.43
171.7,5969.05
171.3,6473.81
170.9,7609.52
170.5,8940.48
170.1,11995.2
169.7,15352.4
169.3,17921.4
168.9,19595.2
168.5,21785.7
168.1,20007.1
167.7,14552.4
167.3,10019
166.9,7123.81
166.5,6245.24
166.1,6078.57
165.7,5814.29
165.3,5880.95
164.9,5902.38
164.5,5766.67
164.1,5754.76
163.7,5669.05
163.3,5719.05
162.9,5609.52
162.5,5383.33
162.1,5276.19
161.7,5385.71
161.3,5316.67
160.9,5540.48
160.5,5152.38
160.1,5366.67
159.7,5259.52
159.3,5416.67
158.9,5323.81
158.5,5430.95
158.1,5592.86
157.7,5257.14
157.3,5447.62
156.9,5600
156.5,5464.29
156.1,5364.29
155.7,5604.76
155.3,5469.05
154.9,5504.76
154.5,5373.81
154.1,5407.14
153.7,5488.1
153.3,5483.33
152.9,5495.24
152.5,5642.86
152.1,5707.14
151.7,5688.1
151.3,5407.14
150.9,5483.33
150.5,5580.95
150.1,5183.33
149.7,5557.14
149.3,5350
148.9,5466.67
148.5,5230.95
148.1,5338.1
147.7,5571.43
147.3,5338.1
146.9,5400
146.5,5326.19
146.1,5452.38
145.7,5550
145.3,5378.57
144.9,5485.71
144.5,5357.14
144.1,5042.86
143.7,5578.57
143.3,5300
142.9,5530.95
142.5,5450
142.1,5404.76
141.7,5364.29
141.3,5340.48
140.9,5254.76
140.5,5376.19
140.1,5290.48
139.7,5142.86
139.3,5530.95
138.9,5311.9
138.5,5428.57
138.1,5478.57
137.7,5540.48
137.3,5419.05
136.9,5326.19
136.5,5264.29
136.1,5347.62
135.7,5407.14
135.3,5366.67
134.9,5276.19
134.5,5321.43
134.1,5428.57
133.7,5488.1
133.3,5478.57
132.9,5478.57
132.5,5442.86
132.1,5433.33
131.7,5616.67
131.3,5557.14
130.9,5504.76
130.5,5366.67
130.1,5280.95
129.7,5547.62
129.3,5640.48
128.9,5480.95
128.5,5507.14
128.1,5461.9
127.7,5402.38
127.3,5447.62
126.9,5352.38
126.5,5511.9
126.1,5461.9
125.7,5773.81
125.3,5680.95
124.9,5850
124.5,5888.1
124.1,6042.86
123.7,6154.76
123.3,6276.19
122.9,6395.24
122.5,6661.9
122.1,6792.86
121.7,7097.62
121.3,6950
120.9,6723.81
120.5,6266.67
120.1,5857.14
119.7,5559.52
119.3,5497.62
118.9,5376.19
118.5,5207.14
118.1,5116.67
117.7,5111.9
117.3,4902.38
116.9,5064.29
116.5,4978.57
116.1,4957.14
115.7,5057.14
115.3,4904.76
114.9,4792.86
114.5,4752.38
114.1,4828.57
113.7,4559.52
113.3,4766.67
112.9,4704.76
112.5,4921.43
112.1,4802.38
111.7,4566.67
111.3,4659.52
110.9,4776.19
110.5,4640.48
110.1,4816.67
109.7,4633.33
109.3,4776.19
108.9,4766.67
108.5,4442.86
108.1,4733.33
107.7,4750
107.3,4614.29
106.9,4580.95
106.5,4771.43
106.1,4666.67
105.7,4685.71
105.3,4647.62
104.9,4809.52
104.5,4680.95
104.1,4869.05
103.7,4757.14
103.3,4578.57
102.9,4690.48
102.5,4657.14
102.1,5023.81
101.7,4940.48
101.3,5000
100.9,5023.81
100.5,4990.48
100.1,4973.81
99.7,4642.86
99.3,4923.81
98.9,5045.24
98.5,4771.43
98.1,4680.95
97.7,4623.81
97.3,4835.71
96.9,4747.62
96.5,4978.57
96.1,4759.52
95.7,4764.29
95.3,4764.29
94.9,4973.81
94.5,4688.1
94.1,4923.81
93.7,4823.81
93.3,4811.9
92.9,4883.33
92.5,4819.05
92.1,4797.62
91.7,4692.86
91.3,4590.48
90.9,4523.81
90.5,4645.24
90.1,4285.71
89.7,4433.33
89.3,4328.57
88.9,4276.19
88.5,4290.48
88.1,4309.52
87.7,4357.14
87.3,4292.86
86.9,4316.67
86.5,4238.1
86.1,4361.9
85.7,4397.62
85.3,4223.81
84.9,4278.57
84.5,4176.19
84.1,4207.14
83.7,4171.43
83.3,3876.19
82.9,4102.38
82.5,4071.43
82.1,4171.43
81.7,4185.71
81.3,4342.86
80.9,4197.62
80.5,4438.1
80.1,4542.86
79.7,4850
79.3,5080.95
78.9,5414.29
78.5,5800
78.1,5907.14
77.7,6335.71
77.3,6945.24
76.9,7121.43
76.5,7745.24
76.1,7616.67
75.7,7692.86
75.3,7392.86
74.9,7547.62
74.5,7547.62
74.1,7459.52
73.7,6850
73.3,5933.33
72.9,5204.76
72.5,4473.81
72.1,4009.52
71.7,3566.67
71.3,3326.19
70.9,3180.95
70.5,2878.57
70.1,2840.48
69.7,2878.57
69.3,2654.76
68.9,2923.81
68.5,2697.62
68.1,2671.43
67.7,2623.81
67.3,2547.62
66.9,2583.33
66.5,2464.29
66.1,2735.71
65.7,2500
65.3,2592.86
64.9,2380.95
64.5,2557.14
64.1,2569.05
63.7,2428.57
63.3,2542.86
62.9,2452.38
62.5,2583.33
62.1,2547.62
61.7,2507.14
61.3,2573.81
60.9,2669.05
60.5,2454.76
60.1,2454.76
59.7,2640.48
59.3,2428.57
58.9,2554.76
58.5,2395.24
58.1,2635.71
57.7,2638.1
57.3,2578.57
56.9,2597.62
56.5,2535.71
56.1,2530.95
55.7,2533.33
55.3,2450
54.9,2542.86
54.5,2383.33
54.1,2557.14
53.7,2542.86
53.3,2597.62
52.9,2573.81
52.5,2338.1
52.1,2516.67
51.7,2578.57
51.3,2454.76
50.9,2333.33
50.5,2483.33
50.1,2304.76
49.7,2430.95
49.3,2559.52
48.9,2500
48.5,2419.05
48.1,2400
47.7,2342.86
47.3,2561.9
46.9,2333.33
46.5,2311.9
46.1,2228.57
45.7,2478.57
45.3,2271.43
44.9,2357.14
44.5,2371.43
44.1,2316.67
43.7,2314.29
43.3,2250
42.9,2321.43
42.5,2338.1
42.1,2411.9
41.7,2476.19
41.3,2395.24
40.9,2326.19
40.5,2333.33
40.1,2292.86
39.7,2369.05
39.3,2569.05
38.9,2542.86
38.5,2454.76
38.1,2633.33
37.7,2552.38
37.3,3014.29
36.9,3171.43
36.5,3340.48
36.1,3285.71
35.7,3730.95
35.3,3580.95
34.9,3771.43
34.5,3928.57
34.1,4209.52
33.7,4171.43
33.3,4419.05
32.9,4202.38
32.5,4119.05
32.1,4004.76
31.7,3502.38
31.3,3090.48
30.9,2964.29
30.5,2809.52
30.1,2638.1
29.7,2654.76
29.3,2592.86
28.9,2630.95
28.5,2495.24
28.1,2497.62
27.7,2490.48
27.3,2440.48
26.9,2526.19
26.5,2509.52
26.1,2692.86
25.7,2630.95
25.3,2747.62
24.9,2657.14
24.5,2521.43
24.1,2576.19
23.7,2450
23.3,2419.05
22.9,2109.52
22.5,2092.86
22.1,2052.38
21.7,1921.43
21.3,1821.43
20.9,1823.81
20.5,1759.52
20.1,1892.86
19.7,2066.67
19.3,2119.05
18.9,2388.1
18.5,2407.14
18.1,2485.71
17.7,2340.48
17.3,2228.57
16.9,2102.38
16.5,2014.29
16.1,2071.43
15.7,2061.9
15.3,2238.1
14.9,2385.71
14.5,2483.33
14.1,2300
13.7,2047.62
13.3,1778.57
12.9,1754.76
12.5,1945.24
12.1,2050
11.7,2347.62
11.3,2561.9
10.9,2585.71
10.5,2664.29
10.1,2483.33
9.7,2530.95
9.3,2388.1
8.9,1823.81
8.5,1461.9
8.1,1397.62
7.7,1221.43
7.3,1340.48
6.9,1359.52
6.5,1516.67
6.1,1619.05
5.7,1700
5.3,1704.76
4.9,1742.86
4.5,1692.86
4.1,1802.38
3.7,1945.24
3.3,2250
2.9,2657.14
2.5,3040.48
2.1,2895.24
1.7,2292.86
1.3,1580.95
0.9,1147.62
0.5,802.381
0.1,754.762
-0.3,521.429
-0.7,340.476
-1.1,309.524
-1.5,233.333
