,
,
Characteristic Energy eV,1486.6
BE_Sur1 1,CPS_Sur1 1
1398.9,53961.8
1398.5,54035.3
1398.1,54223.5
1397.7,53579.4
1397.3,53564.7
1396.9,54179.4
1396.5,54288.2
1396.1,54414.7
1395.7,53867.6
1395.3,54067.6
1394.9,53814.7
1394.5,53332.4
1394.1,53620.6
1393.7,53897.1
1393.3,54108.8
1392.9,53173.5
1392.5,53088.2
1392.1,53541.2
1391.7,53208.8
1391.3,52894.1
1390.9,52876.5
1390.5,52947.1
1390.1,52905.9
1389.7,53864.7
1389.3,53414.7
1388.9,53076.5
1388.5,52876.5
1388.1,52788.2
1387.7,52185.3
1387.3,52664.7
1386.9,52170.6
1386.5,52685.3
1386.1,52300
1385.7,51455.9
1385.3,51850
1384.9,52111.8
1384.5,51635.3
1384.1,51808.8
1383.7,52552.9
1383.3,51641.2
1382.9,51752.9
1382.5,50958.8
1382.1,51891.2
1381.7,50708.8
1381.3,51405.9
1380.9,51814.7
1380.5,51108.8
1380.1,50308.8
1379.7,50985.3
1379.3,49602.9
1378.9,50938.2
1378.5,50694.1
1378.1,50520.6
1377.7,50711.8
1377.3,50791.2
1376.9,50100
1376.5,50185.3
1376.1,50052.9
1375.7,50044.1
1375.3,49741.2
1374.9,50017.6
1374.5,49888.2
1374.1,49417.6
1373.7,50002.9
1373.3,49188.2
1372.9,49517.6
1372.5,49555.9
1372.1,48870.6
1371.7,49032.4
1371.3,49147.1
1370.9,48623.5
1370.5,49238.2
1370.1,48547.1
1369.7,49523.5
1369.3,48688.2
1368.9,49038.2
1368.5,48650
1368.1,49044.1
1367.7,48835.3
1367.3,47761.8
1366.9,47967.6
1366.5,48835.3
1366.1,48502.9
1365.7,47950
1365.3,48108.8
1364.9,48211.8
1364.5,47979.4
1364.1,47997.1
1363.7,48064.7
1363.3,47858.8
1362.9,47520.6
1362.5,48029.4
1362.1,47435.3
1361.7,47794.1
1361.3,47808.8
1360.9,47414.7
1360.5,47420.6
1360.1,47120.6
1359.7,46455.9
1359.3,47482.4
1358.9,47494.1
1358.5,46758.8
1358.1,46970.6
1357.7,46176.5
1357.3,46620.6
1356.9,46688.2
1356.5,46820.6
1356.1,45773.5
1355.7,45855.9
1355.3,46870.6
1354.9,46255.9
1354.5,46123.5
1354.1,46100
1353.7,45591.2
1353.3,45882.4
1352.9,45488.2
1352.5,46035.3
1352.1,45141.2
1351.7,46411.8
1351.3,45264.7
1350.9,44929.4
1350.5,45597.1
1350.1,45161.8
1349.7,45314.7
1349.3,45179.4
1348.9,44714.7
1348.5,44897.1
1348.1,44997.1
1347.7,45117.6
1347.3,44467.6
1346.9,44623.5
1346.5,45064.7
1346.1,44805.9
1345.7,44826.5
1345.3,45152.9
1344.9,44926.5
1344.5,44767.6
1344.1,44608.8
1343.7,44582.4
1343.3,44179.4
1342.9,43938.2
1342.5,43873.5
1342.1,44152.9
1341.7,43805.9
1341.3,44123.5
1340.9,43541.2
1340.5,43514.7
1340.1,44005.9
1339.7,44108.8
1339.3,44038.2
1338.9,43682.4
1338.5,43985.3
1338.1,43341.2
1337.7,43388.2
1337.3,42147.1
1336.9,43370.6
1336.5,42391.2
1336.1,43211.8
1335.7,43041.2
1335.3,42726.5
1334.9,43041.2
1334.5,42561.8
1334.1,42014.7
1333.7,41973.5
1333.3,42255.9
1332.9,42273.5
1332.5,42476.5
1332.1,41926.5
1331.7,41923.5
1331.3,41947.1
1330.9,41400
1330.5,41397.1
1330.1,41826.5
1329.7,41405.9
1329.3,41000
1328.9,40902.9
1328.5,41326.5
1328.1,41238.2
1327.7,40785.3
1327.3,40776.5
1326.9,40808.8
1326.5,40558.8
1326.1,41055.9
1325.7,40302.9
1325.3,40455.9
1324.9,40397.1
1324.5,40241.2
1324.1,40452.9
1323.7,40414.7
1323.3,40350
1322.9,40526.5
1322.5,40461.8
1322.1,41029.4
1321.7,40811.8
1321.3,41061.8
1320.9,40323.5
1320.5,40032.4
1320.1,40470.6
1319.7,39947.1
1319.3,40220.6
1318.9,39579.4
1318.5,40679.4
1318.1,39597.1
1317.7,39997.1
1317.3,40841.2
1316.9,40108.8
1316.5,40214.7
1316.1,39917.6
1315.7,40035.3
1315.3,40191.2
1314.9,39970.6
1314.5,40064.7
1314.1,39473.5
1313.7,39702.9
1313.3,40008.8
1312.9,39247.1
1312.5,39708.8
1312.1,39535.3
1311.7,39811.8
1311.3,39467.6
1310.9,39388.2
1310.5,39708.8
1310.1,39550
1309.7,39182.4
1309.3,39588.2
1308.9,39152.9
1308.5,38858.8
1308.1,39579.4
1307.7,39632.4
1307.3,39452.9
1306.9,39217.6
1306.5,39561.8
1306.1,39894.1
1305.7,39529.4
1305.3,39270.6
1304.9,39164.7
1304.5,39620.6
1304.1,38882.4
1303.7,38655.9
1303.3,39694.1
1302.9,39882.4
1302.5,39617.6
1302.1,39167.6
1301.7,39914.7
1301.3,39500
1300.9,39197.1
1300.5,39208.8
1300.1,38929.4
1299.7,39541.2
1299.3,39238.2
1298.9,39455.9
1298.5,39297.1
1298.1,38802.9
1297.7,39188.2
1297.3,39176.5
1296.9,39082.4
1296.5,39200
1296.1,39655.9
1295.7,38385.3
1295.3,39400
1294.9,39673.5
1294.5,38814.7
1294.1,39208.8
1293.7,39691.2
1293.3,39397.1
1292.9,39179.4
1292.5,39402.9
1292.1,38676.5
1291.7,39405.9
1291.3,39588.2
1290.9,38982.4
1290.5,39244.1
1290.1,38755.9
1289.7,39394.1
1289.3,39373.5
1288.9,39126.5
1288.5,39900
1288.1,38888.2
1287.7,39350
1287.3,39173.5
1286.9,38670.6
1286.5,39170.6
1286.1,39050
1285.7,38841.2
1285.3,39508.8
1284.9,39458.8
1284.5,38976.5
1284.1,39370.6
1283.7,39323.5
1283.3,39658.8
1282.9,39238.2
1282.5,40447.1
1282.1,38955.9
1281.7,39391.2
1281.3,39685.3
1280.9,39755.9
1280.5,39314.7
1280.1,39720.6
1279.7,39408.8
1279.3,39261.8
1278.9,39273.5
1278.5,39458.8
1278.1,39161.8
1277.7,38988.2
1277.3,38511.8
1276.9,39626.5
1276.5,39055.9
1276.1,39579.4
1275.7,38885.3
1275.3,39438.2
1274.9,39729.4
1274.5,39382.4
1274.1,39485.3
1273.7,39041.2
1273.3,39729.4
1272.9,39064.7
1272.5,39091.2
1272.1,38597.1
1271.7,39658.8
1271.3,39808.8
1270.9,39255.9
1270.5,39482.4
1270.1,38811.8
1269.7,39517.6
1269.3,39814.7
1268.9,40097.1
1268.5,39161.8
1268.1,39332.4
1267.7,39188.2
1267.3,39220.6
1266.9,39532.4
1266.5,39279.4
1266.1,39488.2
1265.7,39073.5
1265.3,39197.1
1264.9,40020.6
1264.5,39070.6
1264.1,39650
1263.7,39735.3
1263.3,39747.1
1262.9,39735.3
1262.5,39850
1262.1,40132.4
1261.7,39950
1261.3,39144.1
1260.9,39952.9
1260.5,39185.3
1260.1,40038.2
1259.7,39150
1259.3,39967.6
1258.9,39773.5
1258.5,39988.2
1258.1,39929.4
1257.7,40188.2
1257.3,39382.4
1256.9,39244.1
1256.5,40091.2
1256.1,40017.6
1255.7,39841.2
1255.3,40158.8
1254.9,40382.4
1254.5,40502.9
1254.1,40041.2
1253.7,39997.1
1253.3,40011.8
1252.9,39458.8
1252.5,40147.1
1252.1,40361.8
1251.7,40944.1
1251.3,39729.4
1250.9,40494.1
1250.5,40188.2
1250.1,40297.1
1249.7,41047.1
1249.3,40938.2
1248.9,40329.4
1248.5,39926.5
1248.1,40338.2
1247.7,40391.2
1247.3,40544.1
1246.9,40855.9
1246.5,40000
1246.1,41205.9
1245.7,40255.9
1245.3,40488.2
1244.9,40338.2
1244.5,39838.2
1244.1,41261.8
1243.7,41188.2
1243.3,40838.2
1242.9,40955.9
1242.5,41017.6
1242.1,41329.4
1241.7,40367.6
1241.3,40497.1
1240.9,40629.4
1240.5,41008.8
1240.1,40950
1239.7,41470.6
1239.3,41385.3
1238.9,40861.8
1238.5,40758.8
1238.1,40752.9
1237.7,40441.2
1237.3,40891.2
1236.9,41200
1236.5,40752.9
1236.1,40835.3
1235.7,40482.4
1235.3,41082.4
1234.9,40958.8
1234.5,41308.8
1234.1,40629.4
1233.7,41485.3
1233.3,41350
1232.9,42135.3
1232.5,41611.8
1232.1,42258.8
1231.7,42155.9
1231.3,42388.2
1230.9,41973.5
1230.5,42329.4
1230.1,42952.9
1229.7,43120.6
1229.3,42244.1
1228.9,42723.5
1228.5,42432.4
1228.1,42688.2
1227.7,43238.2
1227.3,43044.1
1226.9,43473.5
1226.5,42835.3
1226.1,42920.6
1225.7,43444.1
1225.3,42988.2
1224.9,42620.6
1224.5,42500
1224.1,42247.1
1223.7,42626.5
1223.3,42405.9
1222.9,42591.2
1222.5,42423.5
1222.1,42570.6
1221.7,42202.9
1221.3,42370.6
1220.9,42082.4
1220.5,41476.5
1220.1,41873.5
1219.7,41511.8
1219.3,41929.4
1218.9,41211.8
1218.5,41297.1
1218.1,41632.4
1217.7,40964.7
1217.3,40858.8
1216.9,40405.9
1216.5,40132.4
1216.1,39817.6
1215.7,39850
1215.3,39855.9
1214.9,39235.3
1214.5,40235.3
1214.1,40020.6
1213.7,39376.5
1213.3,39194.1
1212.9,39097.1
1212.5,38888.2
1212.1,39614.7
1211.7,39164.7
1211.3,39055.9
1210.9,39320.6
1210.5,38970.6
1210.1,39067.6
1209.7,38944.1
1209.3,39058.8
1208.9,39652.9
1208.5,38864.7
1208.1,40097.1
1207.7,39073.5
1207.3,39508.8
1206.9,39179.4
1206.5,39685.3
1206.1,39550
1205.7,39476.5
1205.3,39282.4
1204.9,39770.6
1204.5,39814.7
1204.1,39458.8
1203.7,39429.4
1203.3,39611.8
1202.9,39447.1
1202.5,39497.1
1202.1,40029.4
1201.7,39417.6
1201.3,39244.1
1200.9,39302.9
1200.5,39291.2
1200.1,38911.8
1199.7,39761.8
1199.3,39555.9
1198.9,39926.5
1198.5,39526.5
1198.1,40070.6
1197.7,39455.9
1197.3,39632.4
1196.9,39444.1
1196.5,39273.5
1196.1,39714.7
1195.7,39979.4
1195.3,39870.6
1194.9,40150
1194.5,39850
1194.1,39682.4
1193.7,40023.5
1193.3,39485.3
1192.9,39685.3
1192.5,40535.3
1192.1,39341.2
1191.7,39567.6
1191.3,39770.6
1190.9,39688.2
1190.5,40435.3
1190.1,40226.5
1189.7,39994.1
1189.3,40441.2
1188.9,39661.8
1188.5,40100
1188.1,40441.2
1187.7,40117.6
1187.3,40402.9
1186.9,39641.2
1186.5,40126.5
1186.1,39844.1
1185.7,40920.6
1185.3,40597.1
1184.9,40620.6
1184.5,40488.2
1184.1,40314.7
1183.7,40150
1183.3,40752.9
1182.9,40155.9
1182.5,40782.4
1182.1,40638.2
1181.7,41329.4
1181.3,40847.1
1180.9,40608.8
1180.5,40947.1
1180.1,40858.8
1179.7,40729.4
1179.3,41432.4
1178.9,40720.6
1178.5,41200
1178.1,41264.7
1177.7,40905.9
1177.3,40844.1
1176.9,40938.2
1176.5,40979.4
1176.1,41579.4
1175.7,41170.6
1175.3,40414.7
1174.9,41364.7
1174.5,40747.1
1174.1,41635.3
1173.7,41414.7
1173.3,41879.4
1172.9,41288.2
1172.5,41097.1
1172.1,41585.3
1171.7,41288.2
1171.3,41805.9
1170.9,41423.5
1170.5,41091.2
1170.1,41476.5
1169.7,41458.8
1169.3,41750
1168.9,41961.8
1168.5,41605.9
1168.1,41794.1
1167.7,42035.3
1167.3,41897.1
1166.9,41629.4
1166.5,42391.2
1166.1,41732.4
1165.7,41602.9
1165.3,41829.4
1164.9,42629.4
1164.5,41497.1
1164.1,41808.8
1163.7,42050
1163.3,42158.8
1162.9,42079.4
1162.5,41876.5
1162.1,42379.4
1161.7,41685.3
1161.3,42385.3
1160.9,42173.5
1160.5,41538.2
1160.1,42123.5
1159.7,42426.5
1159.3,42055.9
1158.9,42191.2
1158.5,42370.6
1158.1,43297.1
1157.7,42823.5
1157.3,43150
1156.9,42297.1
1156.5,43235.3
1156.1,41967.6
1155.7,42555.9
1155.3,42379.4
1154.9,42305.9
1154.5,43250
1154.1,43367.6
1153.7,42885.3
1153.3,42650
1152.9,42885.3
1152.5,42820.6
1152.1,42505.9
1151.7,42635.3
1151.3,43285.3
1150.9,42555.9
1150.5,43179.4
1150.1,43467.6
1149.7,43408.8
1149.3,43208.8
1148.9,43814.7
1148.5,43223.5
1148.1,44302.9
1147.7,43285.3
1147.3,43423.5
1146.9,43202.9
1146.5,43258.8
1146.1,43694.1
1145.7,42923.5
1145.3,43926.5
1144.9,43182.4
1144.5,43132.4
1144.1,43000
1143.7,43426.5
1143.3,44073.5
1142.9,43641.2
1142.5,44167.6
1142.1,43291.2
1141.7,43308.8
1141.3,43667.6
1140.9,44232.4
1140.5,43676.5
1140.1,44500
1139.7,44697.1
1139.3,44035.3
1138.9,43470.6
1138.5,44208.8
1138.1,43991.2
1137.7,44008.8
1137.3,44170.6
1136.9,43773.5
1136.5,44191.2
1136.1,44285.3
1135.7,44344.1
1135.3,44255.9
1134.9,44673.5
1134.5,44094.1
1134.1,45273.5
1133.7,44314.7
1133.3,44500
1132.9,44600
1132.5,44305.9
1132.1,44638.2
1131.7,44902.9
1131.3,45255.9
1130.9,45158.8
1130.5,44723.5
1130.1,45241.2
1129.7,45002.9
1129.3,45117.6
1128.9,45297.1
1128.5,44602.9
1128.1,45164.7
1127.7,45182.4
1127.3,44705.9
1126.9,45300
1126.5,45123.5
1126.1,44808.8
1125.7,45047.1
1125.3,45432.4
1124.9,45508.8
1124.5,45526.5
1124.1,45182.4
1123.7,45855.9
1123.3,45297.1
1122.9,44823.5
1122.5,45714.7
1122.1,45117.6
1121.7,44779.4
1121.3,45102.9
1120.9,45123.5
1120.5,46108.8
1120.1,45811.8
1119.7,45747.1
1119.3,45914.7
1118.9,44679.4
1118.5,46394.1
1118.1,45300
1117.7,45864.7
1117.3,46047.1
1116.9,45902.9
1116.5,46032.4
1116.1,45655.9
1115.7,45755.9
1115.3,45702.9
1114.9,45823.5
1114.5,46300
1114.1,45935.3
1113.7,45423.5
1113.3,45997.1
1112.9,46426.5
1112.5,47076.5
1112.1,46102.9
1111.7,46655.9
1111.3,46582.4
1110.9,46773.5
1110.5,46597.1
1110.1,46902.9
1109.7,47188.2
1109.3,46770.6
1108.9,46997.1
1108.5,46426.5
1108.1,46505.9
1107.7,46676.5
1107.3,46426.5
1106.9,47629.4
1106.5,47194.1
1106.1,47082.4
1105.7,47420.6
1105.3,47552.9
1104.9,46435.3
1104.5,46826.5
1104.1,47620.6
1103.7,46723.5
1103.3,47673.5
1102.9,46514.7
1102.5,46614.7
1102.1,46673.5
1101.7,46502.9
1101.3,46294.1
1100.9,47764.7
1100.5,46685.3
1100.1,46814.7
1099.7,47458.8
1099.3,46638.2
1098.9,46708.8
1098.5,46932.4
1098.1,46158.8
1097.7,46861.8
1097.3,46723.5
1096.9,47182.4
1096.5,47744.1
1096.1,46891.2
1095.7,46408.8
1095.3,46832.4
1094.9,47370.6
1094.5,46358.8
1094.1,47314.7
1093.7,47744.1
1093.3,47338.2
1092.9,47011.8
1092.5,47317.6
1092.1,47541.2
1091.7,47179.4
1091.3,47802.9
1090.9,47979.4
1090.5,47641.2
1090.1,47373.5
1089.7,47741.2
1089.3,47005.9
1088.9,47373.5
1088.5,47820.6
1088.1,48008.8
1087.7,47082.4
1087.3,47517.6
1086.9,47223.5
1086.5,47947.1
1086.1,47352.9
1085.7,48123.5
1085.3,48497.1
1084.9,47811.8
1084.5,47232.4
1084.1,47002.9
1083.7,48423.5
1083.3,47761.8
1082.9,47735.3
1082.5,47508.8
1082.1,47379.4
1081.7,48388.2
1081.3,47173.5
1080.9,47958.8
1080.5,47382.4
1080.1,47541.2
1079.7,48211.8
1079.3,48391.2
1078.9,47544.1
1078.5,48011.8
1078.1,48038.2
1077.7,47488.2
1077.3,48911.8
1076.9,48417.6
1076.5,48502.9
1076.1,47950
1075.7,47708.8
1075.3,48052.9
1074.9,48135.3
1074.5,47114.7
1074.1,48479.4
1073.7,48917.6
1073.3,48620.6
1072.9,49211.8
1072.5,48832.4
1072.1,50311.8
1071.7,50870.6
1071.3,51741.2
1070.9,52658.8
1070.5,51691.2
1070.1,51082.4
1069.7,49523.5
1069.3,49617.6
1068.9,49020.6
1068.5,49158.8
1068.1,48941.2
1067.7,49370.6
1067.3,47732.4
1066.9,49426.5
1066.5,48767.6
1066.1,49244.1
1065.7,49147.1
1065.3,49055.9
1064.9,49664.7
1064.5,49638.2
1064.1,50314.7
1063.7,48938.2
1063.3,49164.7
1062.9,49505.9
1062.5,49764.7
1062.1,49867.6
1061.7,49785.3
1061.3,49817.6
1060.9,49647.1
1060.5,50079.4
1060.1,49917.6
1059.7,49605.9
1059.3,49847.1
1058.9,49017.6
1058.5,50214.7
1058.1,50455.9
1057.7,49970.6
1057.3,50250
1056.9,50044.1
1056.5,50300
1056.1,49988.2
1055.7,49997.1
1055.3,49882.4
1054.9,50652.9
1054.5,50100
1054.1,50423.5
1053.7,50164.7
1053.3,50620.6
1052.9,50361.8
1052.5,50205.9
1052.1,50670.6
1051.7,51094.1
1051.3,51285.3
1050.9,49970.6
1050.5,50641.2
1050.1,50102.9
1049.7,50897.1
1049.3,50405.9
1048.9,50832.4
1048.5,50100
1048.1,50432.4
1047.7,50538.2
1047.3,51352.9
1046.9,51167.6
1046.5,51667.6
1046.1,51032.4
1045.7,51594.1
1045.3,51735.3
1044.9,52188.2
1044.5,52070.6
1044.1,50947.1
1043.7,51167.6
1043.3,51741.2
1042.9,51291.2
1042.5,50967.6
1042.1,52014.7
1041.7,51717.6
1041.3,51158.8
1040.9,51902.9
1040.5,50850
1040.1,51938.2
1039.7,51691.2
1039.3,52444.1
1038.9,51991.2
1038.5,51670.6
1038.1,51800
1037.7,52017.6
1037.3,52323.5
1036.9,51923.5
1036.5,52494.1
1036.1,51761.8
1035.7,52952.9
1035.3,52597.1
1034.9,52079.4
1034.5,52691.2
1034.1,52285.3
1033.7,52108.8
1033.3,52750
1032.9,52558.8
1032.5,52744.1
1032.1,53147.1
1031.7,52450
1031.3,52702.9
1030.9,52555.9
1030.5,52550
1030.1,53088.2
1029.7,52273.5
1029.3,52911.8
1028.9,53426.5
1028.5,52270.6
1028.1,52688.2
1027.7,52205.9
1027.3,52823.5
1026.9,52152.9
1026.5,53050
1026.1,53223.5
1025.7,53408.8
1025.3,53117.6
1024.9,52988.2
1024.5,53923.5
1024.1,53114.7
1023.7,53364.7
1023.3,53202.9
1022.9,54088.2
1022.5,54302.9
1022.1,55044.1
1021.7,55511.8
1021.3,55197.1
1020.9,55664.7
1020.5,54605.9
1020.1,54664.7
1019.7,54667.6
1019.3,54114.7
1018.9,53600
1018.5,54573.5
1018.1,54014.7
1017.7,54497.1
1017.3,54032.4
1016.9,54702.9
1016.5,54188.2
1016.1,53970.6
1015.7,53891.2
1015.3,54350
1014.9,54088.2
1014.5,53455.9
1014.1,54491.2
1013.7,54991.2
1013.3,54214.7
1012.9,54294.1
1012.5,54705.9
1012.1,54802.9
1011.7,54882.4
1011.3,54979.4
1010.9,54455.9
1010.5,55011.8
1010.1,54952.9
1009.7,56141.2
1009.3,55244.1
1008.9,54338.2
1008.5,54782.4
1008.1,55829.4
1007.7,54929.4
1007.3,55702.9
1006.9,54429.4
1006.5,55044.1
1006.1,56014.7
1005.7,55873.5
1005.3,55717.6
1004.9,55750
1004.5,56388.2
1004.1,56438.2
1003.7,56667.6
1003.3,56608.8
1002.9,56811.8
1002.5,57167.6
1002.1,57070.6
1001.7,56473.5
1001.3,56823.5
1000.9,55923.5
1000.5,56873.5
1000.1,56508.8
999.7,57305.9
999.3,56770.6
998.9,56064.7
998.5,57394.1
998.1,57238.2
997.7,56058.8
997.3,56494.1
996.9,57647.1
996.5,56420.6
996.1,56485.3
995.7,57232.4
995.3,56488.2
994.9,55894.1
994.5,56761.8
994.1,56432.4
993.7,56914.7
993.3,56705.9
992.9,57423.5
992.5,56050
992.1,55911.8
991.7,56441.2
991.3,56523.5
990.9,56429.4
990.5,56500
990.1,55994.1
989.7,56464.7
989.3,57438.2
988.9,56220.6
988.5,56076.5
988.1,56291.2
987.7,56541.2
987.3,56482.4
986.9,56964.7
986.5,56355.9
986.1,57026.5
985.7,57329.4
985.3,56579.4
984.9,57055.9
984.5,56976.5
984.1,57270.6
983.7,57747.1
983.3,58129.4
982.9,58464.7
982.5,57855.9
982.1,58855.9
981.7,59570.6
981.3,59144.1
980.9,59135.3
980.5,59282.4
980.1,60235.3
979.7,60941.2
979.3,60288.2
978.9,60758.8
978.5,60644.1
978.1,61152.9
977.7,61350
977.3,62038.2
976.9,61176.5
976.5,60279.4
976.1,61126.5
975.7,60991.2
975.3,60944.1
974.9,60082.4
974.5,59835.3
974.1,59670.6
973.7,60038.2
973.3,59185.3
972.9,59064.7
972.5,59197.1
972.1,59426.5
971.7,58447.1
971.3,58708.8
970.9,58329.4
970.5,57985.3
970.1,59120.6
969.7,57432.4
969.3,58088.2
968.9,57373.5
968.5,57105.9
968.1,57358.8
967.7,57367.6
967.3,55876.5
966.9,57423.5
966.5,56920.6
966.1,56397.1
965.7,56947.1
965.3,56402.9
964.9,56870.6
964.5,57311.8
964.1,57576.5
963.7,56367.6
963.3,56997.1
962.9,56652.9
962.5,56452.9
962.1,57111.8
961.7,56588.2
961.3,57223.5
960.9,56397.1
960.5,56932.4
960.1,56514.7
959.7,57167.6
959.3,57223.5
958.9,56561.8
958.5,57682.4
958.1,57188.2
957.7,57005.9
957.3,57785.3
956.9,58044.1
956.5,57364.7
956.1,57467.6
955.7,57976.5
955.3,56979.4
954.9,57267.6
954.5,57847.1
954.1,57667.6
953.7,57888.2
953.3,58147.1
952.9,57591.2
952.5,57411.8
952.1,58079.4
951.7,58241.2
951.3,57682.4
950.9,57038.2
950.5,58335.3
950.1,58052.9
949.7,57511.8
949.3,58320.6
948.9,58550
948.5,58438.2
948.1,58311.8
947.7,58461.8
947.3,58900
946.9,58547.1
946.5,58508.8
946.1,58141.2
945.7,58544.1
945.3,58644.1
944.9,58347.1
944.5,58711.8
944.1,58529.4
943.7,58920.6
943.3,58758.8
942.9,59529.4
942.5,59270.6
942.1,59208.8
941.7,59302.9
941.3,58891.2
940.9,59008.8
940.5,58717.6
940.1,58976.5
939.7,59558.8
939.3,59508.8
938.9,59414.7
938.5,59211.8
938.1,59332.4
937.7,59055.9
937.3,60050
936.9,59511.8
936.5,59702.9
936.1,59702.9
935.7,60014.7
935.3,59376.5
934.9,59261.8
934.5,60094.1
934.1,60376.5
933.7,60620.6
933.3,60650
932.9,60067.6
932.5,60173.5
932.1,60352.9
931.7,59988.2
931.3,60800
930.9,59741.2
930.5,60732.4
930.1,61026.5
929.7,60911.8
929.3,60850
928.9,60535.3
928.5,60814.7
928.1,60867.6
927.7,60602.9
927.3,61367.6
926.9,60800
926.5,60282.4
926.1,61582.4
925.7,60914.7
925.3,60294.1
924.9,61414.7
924.5,60944.1
924.1,61670.6
923.7,61573.5
923.3,61117.6
922.9,61297.1
922.5,60917.6
922.1,61300
921.7,61541.2
921.3,62726.5
920.9,61879.4
920.5,62091.2
920.1,61764.7
919.7,62235.3
919.3,61194.1
918.9,61750
918.5,60938.2
918.1,62032.4
917.7,62438.2
917.3,62485.3
916.9,61194.1
916.5,62232.4
916.1,61847.1
915.7,61991.2
915.3,61911.8
914.9,62623.5
914.5,62350
914.1,63005.9
913.7,63176.5
913.3,62664.7
912.9,62673.5
912.5,62235.3
912.1,62873.5
911.7,63514.7
911.3,63250
910.9,62397.1
910.5,62817.6
910.1,62970.6
909.7,62720.6
909.3,62911.8
908.9,62729.4
908.5,63529.4
908.1,63182.4
907.7,62652.9
907.3,63823.5
906.9,63691.2
906.5,64344.1
906.1,64197.1
905.7,63585.3
905.3,63835.3
904.9,63755.9
904.5,63500
904.1,64550
903.7,63935.3
903.3,64802.9
902.9,64947.1
902.5,64279.4
902.1,63835.3
901.7,63964.7
901.3,64285.3
900.9,64500
900.5,64682.4
900.1,65355.9
899.7,65308.8
899.3,64391.2
898.9,64632.4
898.5,64688.2
898.1,65455.9
897.7,65097.1
897.3,64382.4
896.9,64729.4
896.5,64973.5
896.1,65464.7
895.7,64785.3
895.3,65447.1
894.9,65679.4
894.5,65347.1
894.1,64682.4
893.7,64794.1
893.3,65188.2
892.9,65052.9
892.5,65505.9
892.1,64741.2
891.7,66194.1
891.3,66367.6
890.9,65935.3
890.5,65467.6
890.1,66085.3
889.7,66773.5
889.3,65982.4
888.9,66770.6
888.5,66235.3
888.1,66961.8
887.7,66232.4
887.3,66861.8
886.9,66629.4
886.5,66455.9
886.1,66929.4
885.7,66658.8
885.3,66432.4
884.9,66488.2
884.5,67138.2
884.1,67776.5
883.7,67114.7
883.3,67494.1
882.9,68597.1
882.5,68055.9
882.1,67085.3
881.7,68097.1
881.3,68108.8
880.9,67361.8
880.5,67950
880.1,68079.4
879.7,68073.5
879.3,67873.5
878.9,69408.8
878.5,68582.4
878.1,67950
877.7,68352.9
877.3,68102.9
876.9,68479.4
876.5,68052.9
876.1,68779.4
875.7,68911.8
875.3,68708.8
874.9,67994.1
874.5,68282.4
874.1,67597.1
873.7,68617.6
873.3,68585.3
872.9,68532.4
872.5,68170.6
872.1,67782.4
871.7,68844.1
871.3,68223.5
870.9,69811.8
870.5,67817.6
870.1,69102.9
869.7,68291.2
869.3,69744.1
868.9,69161.8
868.5,68835.3
868.1,69402.9
867.7,68726.5
867.3,69214.7
866.9,68944.1
866.5,69629.4
866.1,70035.3
865.7,69702.9
865.3,70244.1
864.9,70358.8
864.5,70747.1
864.1,71370.6
863.7,71408.8
863.3,71852.9
862.9,71497.1
862.5,70938.2
862.1,72082.4
861.7,71350
861.3,72676.5
860.9,72441.2
860.5,73000
860.1,72361.8
859.7,72452.9
859.3,73211.8
858.9,73170.6
858.5,71705.9
858.1,72276.5
857.7,71614.7
857.3,72108.8
856.9,72629.4
856.5,71573.5
856.1,72167.6
855.7,71905.9
855.3,71538.2
854.9,71670.6
854.5,72244.1
854.1,71970.6
853.7,71891.2
853.3,72026.5
852.9,70855.9
852.5,71917.6
852.1,71491.2
851.7,71623.5
851.3,71435.3
850.9,71558.8
850.5,71964.7
850.1,71373.5
849.7,71561.8
849.3,71573.5
848.9,70950
848.5,70897.1
848.1,71167.6
847.7,71270.6
847.3,70129.4
846.9,71111.8
846.5,71697.1
846.1,71023.5
845.7,70382.4
845.3,71676.5
844.9,70400
844.5,71673.5
844.1,71738.2
843.7,71182.4
843.3,71770.6
842.9,72347.1
842.5,71958.8
842.1,70973.5
841.7,71385.3
841.3,72435.3
840.9,72091.2
840.5,71405.9
840.1,72144.1
839.7,73517.6
839.3,72520.6
838.9,73441.2
838.5,73323.5
838.1,74302.9
837.7,74541.2
837.3,77629.4
836.9,76694.1
836.5,77870.6
836.1,79473.5
835.7,78720.6
835.3,79902.9
834.9,80823.5
834.5,81461.8
834.1,82358.8
833.7,81385.3
833.3,82982.4
832.9,81908.8
832.5,80802.9
832.1,80685.3
831.7,79329.4
831.3,79067.6
830.9,77950
830.5,78023.5
830.1,76844.1
829.7,77388.2
829.3,76261.8
828.9,76314.7
828.5,75467.6
828.1,76188.2
827.7,74550
827.3,74673.5
826.9,75705.9
826.5,73979.4
826.1,73829.4
825.7,72788.2
825.3,73511.8
824.9,72335.3
824.5,72347.1
824.1,70361.8
823.7,70129.4
823.3,70232.4
822.9,71741.2
822.5,70517.6
822.1,69891.2
821.7,69476.5
821.3,69232.4
820.9,68717.6
820.5,68976.5
820.1,69217.6
819.7,69394.1
819.3,68664.7
818.9,69520.6
818.5,69479.4
818.1,69417.6
817.7,70194.1
817.3,69776.5
816.9,69491.2
816.5,69238.2
816.1,69997.1
815.7,69617.6
815.3,68908.8
814.9,69370.6
814.5,70158.8
814.1,69597.1
813.7,69258.8
813.3,69885.3
812.9,69729.4
812.5,69770.6
812.1,69394.1
811.7,70047.1
811.3,69270.6
810.9,70235.3
810.5,69638.2
810.1,69511.8
809.7,69405.9
809.3,69644.1
808.9,69935.3
808.5,70232.4
808.1,70826.5
807.7,70073.5
807.3,69688.2
806.9,70608.8
806.5,69941.2
806.1,71626.5
805.7,70900
805.3,70626.5
804.9,70667.6
804.5,70779.4
804.1,70791.2
803.7,70855.9
803.3,70935.3
802.9,70605.9
802.5,70341.2
802.1,70920.6
801.7,70976.5
801.3,70385.3
800.9,71020.6
800.5,71467.6
800.1,71485.3
799.7,70905.9
799.3,71050
798.9,71547.1
798.5,71047.1
798.1,70555.9
797.7,71458.8
797.3,71779.4
796.9,71405.9
796.5,71894.1
796.1,71729.4
795.7,71523.5
795.3,70944.1
794.9,72188.2
794.5,71097.1
794.1,72085.3
793.7,72114.7
793.3,71644.1
792.9,72982.4
792.5,72220.6
792.1,71876.5
791.7,71511.8
791.3,72179.4
790.9,72673.5
790.5,72652.9
790.1,72447.1
789.7,72061.8
789.3,72294.1
788.9,71385.3
788.5,72332.4
788.1,72635.3
787.7,72085.3
787.3,72644.1
786.9,72223.5
786.5,72750
786.1,72300
785.7,72805.9
785.3,72623.5
784.9,72550
784.5,73361.8
784.1,72991.2
783.7,72541.2
783.3,73550
782.9,73279.4
782.5,73314.7
782.1,73179.4
781.7,73635.3
781.3,72797.1
780.9,72944.1
780.5,74250
780.1,74047.1
779.7,73252.9
779.3,73776.5
778.9,73576.5
778.5,73808.8
778.1,73132.4
777.7,73950
777.3,73847.1
776.9,73370.6
776.5,74094.1
776.1,73314.7
775.7,74191.2
775.3,73435.3
774.9,74164.7
774.5,74838.2
774.1,74764.7
773.7,74788.2
773.3,73620.6
772.9,73305.9
772.5,73547.1
772.1,74470.6
771.7,74247.1
771.3,73897.1
770.9,74441.2
770.5,74291.2
770.1,74679.4
769.7,74658.8
769.3,75317.6
768.9,75076.5
768.5,75194.1
768.1,74482.4
767.7,75288.2
767.3,74988.2
766.9,74620.6
766.5,75667.6
766.1,74320.6
765.7,75032.4
765.3,75414.7
764.9,74988.2
764.5,75532.4
764.1,75620.6
763.7,76582.4
763.3,75194.1
762.9,76632.4
762.5,76020.6
762.1,76432.4
761.7,76647.1
761.3,76829.4
760.9,76400
760.5,76323.5
760.1,76344.1
759.7,76482.4
759.3,76308.8
758.9,76850
758.5,76232.4
758.1,75811.8
757.7,75567.6
757.3,75558.8
756.9,76426.5
756.5,76164.7
756.1,76673.5
755.7,75735.3
755.3,76185.3
754.9,76188.2
754.5,76855.9
754.1,75561.8
753.7,77005.9
753.3,76658.8
752.9,77002.9
752.5,76026.5
752.1,76823.5
751.7,77023.5
751.3,77208.8
750.9,75891.2
750.5,76667.6
750.1,77291.2
749.7,77773.5
749.3,76152.9
748.9,77200
748.5,77335.3
748.1,77061.8
747.7,77250
747.3,77335.3
746.9,78258.8
746.5,78244.1
746.1,77570.6
745.7,77438.2
745.3,77747.1
744.9,77414.7
744.5,77697.1
744.1,77297.1
743.7,77555.9
743.3,77600
742.9,77161.8
742.5,77661.8
742.1,77891.2
741.7,77935.3
741.3,78464.7
740.9,78388.2
740.5,77708.8
740.1,78705.9
739.7,78611.8
739.3,77808.8
738.9,78788.2
738.5,78929.4
738.1,78594.1
737.7,79608.8
737.3,78991.2
736.9,78800
736.5,79294.1
736.1,79432.4
735.7,79479.4
735.3,79852.9
734.9,80294.1
734.5,79491.2
734.1,79694.1
733.7,79082.4
733.3,79691.2
732.9,79691.2
732.5,79414.7
732.1,79373.5
731.7,78747.1
731.3,79708.8
730.9,79194.1
730.5,79885.3
730.1,79947.1
729.7,79002.9
729.3,79985.3
728.9,79502.9
728.5,79547.1
728.1,79982.4
727.7,79758.8
727.3,80173.5
726.9,79641.2
726.5,80567.6
726.1,81238.2
725.7,79438.2
725.3,80552.9
724.9,79870.6
724.5,80355.9
724.1,80961.8
723.7,80861.8
723.3,81929.4
722.9,81605.9
722.5,80817.6
722.1,80452.9
721.7,80623.5
721.3,81197.1
720.9,82532.4
720.5,82476.5
720.1,82605.9
719.7,83076.5
719.3,82629.4
718.9,82582.4
718.5,82626.5
718.1,83608.8
717.7,83008.8
717.3,83347.1
716.9,83408.8
716.5,83923.5
716.1,83000
715.7,83308.8
715.3,82126.5
714.9,83682.4
714.5,83144.1
714.1,83023.5
713.7,82311.8
713.3,83485.3
712.9,83020.6
712.5,82482.4
712.1,82661.8
711.7,83241.2
711.3,82723.5
710.9,83155.9
710.5,83250
710.1,83061.8
709.7,83752.9
709.3,82682.4
708.9,83091.2
708.5,83820.6
708.1,83529.4
707.7,84697.1
707.3,84270.6
706.9,83750
706.5,84426.5
706.1,82305.9
705.7,83258.8
705.3,81558.8
704.9,81338.2
704.5,81038.2
704.1,81747.1
703.7,81911.8
703.3,80829.4
702.9,82014.7
702.5,82073.5
702.1,81779.4
701.7,81014.7
701.3,80944.1
700.9,80670.6
700.5,80523.5
700.1,81364.7
699.7,79850
699.3,79844.1
698.9,79029.4
698.5,79805.9
698.1,77885.3
697.7,78208.8
697.3,78811.8
696.9,79223.5
696.5,77429.4
696.1,78202.9
695.7,77635.3
695.3,78417.6
694.9,77967.6
694.5,77817.6
694.1,77114.7
693.7,77379.4
693.3,76370.6
692.9,77308.8
692.5,78961.8
692.1,78220.6
691.7,79238.2
691.3,81179.4
690.9,84188.2
690.5,89461.8
690.1,101568
689.7,119076
689.3,145238
688.9,170732
688.5,186406
688.1,180450
687.7,155403
687.3,126803
686.9,103250
686.5,90902.9
686.1,85008.8
685.7,81958.8
685.3,80888.2
684.9,79444.1
684.5,79347.1
684.1,80241.2
683.7,78791.2
683.3,77723.5
682.9,77850
682.5,78358.8
682.1,78285.3
681.7,76908.8
681.3,76770.6
680.9,77597.1
680.5,76979.4
680.1,77038.2
679.7,77694.1
679.3,77267.6
678.9,77623.5
678.5,76988.2
678.1,77644.1
677.7,77417.6
677.3,77885.3
676.9,76852.9
676.5,76182.4
676.1,77647.1
675.7,77682.4
675.3,77320.6
674.9,77055.9
674.5,77661.8
674.1,77961.8
673.7,77517.6
673.3,77664.7
672.9,78732.4
672.5,77997.1
672.1,77350
671.7,78041.2
671.3,78082.4
670.9,77694.1
670.5,77805.9
670.1,78217.6
669.7,77058.8
669.3,78105.9
668.9,77850
668.5,77288.2
668.1,78132.4
667.7,78473.5
667.3,77644.1
666.9,77867.6
666.5,78735.3
666.1,79011.8
665.7,78941.2
665.3,78744.1
664.9,78885.3
664.5,79055.9
664.1,78932.4
663.7,78358.8
663.3,78947.1
662.9,79417.6
662.5,79602.9
662.1,80058.8
661.7,78473.5
661.3,79620.6
660.9,78450
660.5,78929.4
660.1,79223.5
659.7,78758.8
659.3,78214.7
658.9,79155.9
658.5,79088.2
658.1,78852.9
657.7,77970.6
657.3,78408.8
656.9,78991.2
656.5,79561.8
656.1,78394.1
655.7,78444.1
655.3,77820.6
654.9,79214.7
654.5,78738.2
654.1,78723.5
653.7,79235.3
653.3,79076.5
652.9,79438.2
652.5,79223.5
652.1,78614.7
651.7,79300
651.3,78711.8
650.9,79317.6
650.5,79441.2
650.1,79497.1
649.7,79611.8
649.3,79355.9
648.9,78576.5
648.5,79650
648.1,78373.5
647.7,79447.1
647.3,79411.8
646.9,80179.4
646.5,80335.3
646.1,80164.7
645.7,80008.8
645.3,80288.2
644.9,79908.8
644.5,80808.8
644.1,81332.4
643.7,81200
643.3,80947.1
642.9,81232.4
642.5,80717.6
642.1,81744.1
641.7,80738.2
641.3,81591.2
640.9,80661.8
640.5,80944.1
640.1,80932.4
639.7,80905.9
639.3,79744.1
638.9,81111.8
638.5,81067.6
638.1,80476.5
637.7,80482.4
637.3,80182.4
636.9,79644.1
636.5,80355.9
636.1,79891.2
635.7,80500
635.3,80294.1
634.9,80191.2
634.5,80670.6
634.1,80747.1
633.7,80338.2
633.3,81129.4
632.9,80388.2
632.5,79735.3
632.1,80685.3
631.7,80102.9
631.3,81470.6
630.9,81126.5
630.5,79970.6
630.1,79844.1
629.7,80191.2
629.3,80455.9
628.9,81108.8
628.5,80241.2
628.1,80782.4
627.7,79820.6
627.3,79961.8
626.9,80223.5
626.5,80147.1
626.1,80270.6
625.7,81441.2
625.3,81050
624.9,80700
624.5,80358.8
624.1,81602.9
623.7,80241.2
623.3,80867.6
622.9,80138.2
622.5,80200
622.1,80450
621.7,81038.2
621.3,80470.6
620.9,81641.2
620.5,81044.1
620.1,81479.4
619.7,81805.9
619.3,81352.9
618.9,81538.2
618.5,82038.2
618.1,81858.8
617.7,81988.2
617.3,81535.3
616.9,81932.4
616.5,83067.6
616.1,82550
615.7,82797.1
615.3,80988.2
614.9,81332.4
614.5,82161.8
614.1,82326.5
613.7,80805.9
613.3,81605.9
612.9,82335.3
612.5,81817.6
612.1,82205.9
611.7,81808.8
611.3,82744.1
610.9,82555.9
610.5,82073.5
610.1,83494.1
609.7,82379.4
609.3,82052.9
608.9,82638.2
608.5,82064.7
608.1,83058.8
607.7,82914.7
607.3,82673.5
606.9,83017.6
606.5,83017.6
606.1,83150
605.7,83450
605.3,83352.9
604.9,82797.1
604.5,82364.7
604.1,81676.5
603.7,82997.1
603.3,82547.1
602.9,82476.5
602.5,82323.5
602.1,83144.1
601.7,82508.8
601.3,82791.2
600.9,82514.7
600.5,83141.2
600.1,84050
599.7,83820.6
599.3,82426.5
598.9,83538.2
598.5,83629.4
598.1,84055.9
597.7,83223.5
597.3,82952.9
596.9,83714.7
596.5,84076.5
596.1,83723.5
595.7,83058.8
595.3,83791.2
594.9,83373.5
594.5,83620.6
594.1,83494.1
593.7,83770.6
593.3,84126.5
592.9,83117.6
592.5,84044.1
592.1,83702.9
591.7,83720.6
591.3,84050
590.9,83508.8
590.5,83729.4
590.1,84341.2
589.7,83314.7
589.3,84314.7
588.9,84511.8
588.5,84352.9
588.1,85208.8
587.7,84661.8
587.3,84526.5
586.9,83191.2
586.5,84014.7
586.1,83958.8
585.7,84291.2
585.3,84900
584.9,84773.5
584.5,84161.8
584.1,85014.7
583.7,84823.5
583.3,84158.8
582.9,83650
582.5,85170.6
582.1,83976.5
581.7,84217.6
581.3,84147.1
580.9,84941.2
580.5,84494.1
580.1,85155.9
579.7,85094.1
579.3,84023.5
578.9,84352.9
578.5,85282.4
578.1,85361.8
577.7,85994.1
577.3,85214.7
576.9,85147.1
576.5,84588.2
576.1,85044.1
575.7,85052.9
575.3,84961.8
574.9,85452.9
574.5,84297.1
574.1,85220.6
573.7,85129.4
573.3,86117.6
572.9,86094.1
572.5,84717.6
572.1,85573.5
571.7,85717.6
571.3,85738.2
570.9,85717.6
570.5,85691.2
570.1,85273.5
569.7,84529.4
569.3,84941.2
568.9,85432.4
568.5,86052.9
568.1,85832.4
567.7,85717.6
567.3,85717.6
566.9,85870.6
566.5,85750
566.1,85176.5
565.7,83897.1
565.3,85511.8
564.9,85744.1
564.5,85302.9
564.1,84067.6
563.7,84641.2
563.3,85547.1
562.9,84597.1
562.5,85347.1
562.1,85288.2
561.7,85150
561.3,86741.2
560.9,85135.3
560.5,85841.2
560.1,85123.5
559.7,84820.6
559.3,85370.6
558.9,85535.3
558.5,85073.5
558.1,85647.1
557.7,85361.8
557.3,85202.9
556.9,84852.9
556.5,85414.7
556.1,85932.4
555.7,85797.1
555.3,86347.1
554.9,86441.2
554.5,85241.2
554.1,85850
553.7,85300
553.3,86014.7
552.9,86561.8
552.5,85970.6
552.1,87023.5
551.7,86532.4
551.3,85920.6
550.9,86550
550.5,86300
550.1,85435.3
549.7,87576.5
549.3,87664.7
548.9,87979.4
548.5,88226.5
548.1,88535.3
547.7,88200
547.3,89988.2
546.9,89888.2
546.5,89300
546.1,88461.8
545.7,88182.4
545.3,88308.8
544.9,87494.1
544.5,86917.6
544.1,86138.2
543.7,84376.5
543.3,83826.5
542.9,83876.5
542.5,82164.7
542.1,82188.2
541.7,81397.1
541.3,81211.8
540.9,80305.9
540.5,80138.2
540.1,80514.7
539.7,79908.8
539.3,78658.8
538.9,80382.4
538.5,78505.9
538.1,78926.5
537.7,79255.9
537.3,79008.8
536.9,79226.5
536.5,79323.5
536.1,78905.9
535.7,80661.8
535.3,80882.4
534.9,81735.3
534.5,82767.6
534.1,87476.5
533.7,94320.6
533.3,105641
532.9,123044
532.5,140074
532.1,143097
531.7,131815
531.3,112003
530.9,96791.2
530.5,87547.1
530.1,84361.8
529.7,81455.9
529.3,81161.8
528.9,79714.7
528.5,79608.8
528.1,79297.1
527.7,78323.5
527.3,79217.6
526.9,78341.2
526.5,78347.1
526.1,78523.5
525.7,78202.9
525.3,77979.4
524.9,78923.5
524.5,78723.5
524.1,79194.1
523.7,78435.3
523.3,78661.8
522.9,77655.9
522.5,77997.1
522.1,79382.4
521.7,79405.9
521.3,77985.3
520.9,77720.6
520.5,79535.3
520.1,78379.4
519.7,79479.4
519.3,78750
518.9,78673.5
518.5,79164.7
518.1,78900
517.7,79055.9
517.3,79147.1
516.9,78932.4
516.5,78811.8
516.1,79426.5
515.7,79450
515.3,78655.9
514.9,79497.1
514.5,78841.2
514.1,78785.3
513.7,79729.4
513.3,79300
512.9,78870.6
512.5,78411.8
512.1,79235.3
511.7,78291.2
511.3,79702.9
510.9,79358.8
510.5,79620.6
510.1,79705.9
509.7,79114.7
509.3,79179.4
508.9,78817.6
508.5,79038.2
508.1,79047.1
507.7,80076.5
507.3,78400
506.9,79514.7
506.5,80350
506.1,79241.2
505.7,80120.6
505.3,79473.5
504.9,79767.6
504.5,80226.5
504.1,80079.4
503.7,80694.1
503.3,80352.9
502.9,80676.5
502.5,80252.9
502.1,80441.2
501.7,80044.1
501.3,80832.4
500.9,80732.4
500.5,80532.4
500.1,80985.3
499.7,80508.8
499.3,80308.8
498.9,81738.2
498.5,81897.1
498.1,81485.3
497.7,82432.4
497.3,83252.9
496.9,83088.2
496.5,82482.4
496.1,82017.6
495.7,81197.1
495.3,81011.8
494.9,80973.5
494.5,80770.6
494.1,80511.8
493.7,80376.5
493.3,79391.2
492.9,80335.3
492.5,81091.2
492.1,80229.4
491.7,81247.1
491.3,79864.7
490.9,81264.7
490.5,81391.2
490.1,80482.4
489.7,79902.9
489.3,80023.5
488.9,80638.2
488.5,81361.8
488.1,81188.2
487.7,80226.5
487.3,80426.5
486.9,81270.6
486.5,81300
486.1,80914.7
485.7,81344.1
485.3,81352.9
484.9,80635.3
484.5,80405.9
484.1,81664.7
483.7,80547.1
483.3,81211.8
482.9,81385.3
482.5,81255.9
482.1,81238.2
481.7,81670.6
481.3,81355.9
480.9,80644.1
480.5,81876.5
480.1,81476.5
479.7,81641.2
479.3,81735.3
478.9,81314.7
478.5,81917.6
478.1,81594.1
477.7,80982.4
477.3,81297.1
476.9,81082.4
476.5,81788.2
476.1,81600
475.7,82641.2
475.3,82117.6
474.9,81588.2
474.5,82029.4
474.1,81867.6
473.7,82235.3
473.3,81779.4
472.9,82802.9
472.5,81861.8
472.1,81952.9
471.7,82005.9
471.3,82547.1
470.9,82555.9
470.5,81617.6
470.1,82394.1
469.7,82650
469.3,82297.1
468.9,82273.5
468.5,81847.1
468.1,82314.7
467.7,81391.2
467.3,82805.9
466.9,82735.3
466.5,82602.9
466.1,82370.6
465.7,83117.6
465.3,81817.6
464.9,82700
464.5,82647.1
464.1,81729.4
463.7,82770.6
463.3,82641.2
462.9,82485.3
462.5,82726.5
462.1,82464.7
461.7,81761.8
461.3,83020.6
460.9,81938.2
460.5,82367.6
460.1,81732.4
459.7,83014.7
459.3,82441.2
458.9,82920.6
458.5,81900
458.1,82785.3
457.7,83367.6
457.3,82847.1
456.9,82497.1
456.5,82802.9
456.1,82455.9
455.7,81961.8
455.3,83497.1
454.9,82302.9
454.5,82564.7
454.1,83114.7
453.7,82967.6
453.3,83611.8
452.9,84244.1
452.5,83667.6
452.1,84720.6
451.7,83582.4
451.3,83367.6
450.9,83029.4
450.5,83673.5
450.1,82852.9
449.7,83491.2
449.3,83647.1
448.9,83285.3
448.5,83473.5
448.1,82711.8
447.7,83829.4
447.3,83297.1
446.9,84444.1
446.5,83967.6
446.1,84541.2
445.7,84497.1
445.3,85364.7
444.9,85082.4
444.5,85405.9
444.1,84667.6
443.7,85555.9
443.3,84482.4
442.9,83491.2
442.5,82823.5
442.1,83567.6
441.7,82955.9
441.3,82335.3
440.9,83532.4
440.5,83361.8
440.1,82879.4
439.7,83873.5
439.3,82885.3
438.9,82970.6
438.5,83947.1
438.1,82926.5
437.7,83923.5
437.3,83391.2
436.9,82744.1
436.5,83694.1
436.1,82411.8
435.7,82717.6
435.3,83305.9
434.9,84017.6
434.5,83020.6
434.1,83764.7
433.7,83779.4
433.3,83788.2
432.9,83520.6
432.5,84226.5
432.1,83700
431.7,82794.1
431.3,83358.8
430.9,83588.2
430.5,84373.5
430.1,83473.5
429.7,83547.1
429.3,83552.9
428.9,84423.5
428.5,83582.4
428.1,84264.7
427.7,83302.9
427.3,83467.6
426.9,84067.6
426.5,84026.5
426.1,84535.3
425.7,84297.1
425.3,83920.6
424.9,83464.7
424.5,84094.1
424.1,84461.8
423.7,83747.1
423.3,83661.8
422.9,83370.6
422.5,83944.1
422.1,83844.1
421.7,84214.7
421.3,84538.2
420.9,83638.2
420.5,83567.6
420.1,83891.2
419.7,82744.1
419.3,84167.6
418.9,83329.4
418.5,84094.1
418.1,83544.1
417.7,83323.5
417.3,83694.1
416.9,84070.6
416.5,83264.7
416.1,83382.4
415.7,84088.2
415.3,82747.1
414.9,83541.2
414.5,82964.7
414.1,83732.4
413.7,83714.7
413.3,82964.7
412.9,82544.1
412.5,82302.9
412.1,84067.6
411.7,82985.3
411.3,82770.6
410.9,82797.1
410.5,82785.3
410.1,82717.6
409.7,82626.5
409.3,82932.4
408.9,81770.6
408.5,82373.5
408.1,81376.5
407.7,82144.1
407.3,81994.1
406.9,83085.3
406.5,82664.7
406.1,83300
405.7,82991.2
405.3,82961.8
404.9,83011.8
404.5,81873.5
404.1,82682.4
403.7,83611.8
403.3,86538.2
402.9,88273.5
402.5,91582.4
402.1,91629.4
401.7,88244.1
401.3,85764.7
400.9,83858.8
400.5,84888.2
400.1,86205.9
399.7,89988.2
399.3,91585.3
398.9,90138.2
398.5,87861.8
398.1,85258.8
397.7,82691.2
397.3,82332.4
396.9,81364.7
396.5,81347.1
396.1,79917.6
395.7,81205.9
395.3,81064.7
394.9,81014.7
394.5,81294.1
394.1,80644.1
393.7,81361.8
393.3,80644.1
392.9,80608.8
392.5,80611.8
392.1,79852.9
391.7,80188.2
391.3,80358.8
390.9,79735.3
390.5,80641.2
390.1,79447.1
389.7,80400
389.3,80720.6
388.9,79782.4
388.5,80141.2
388.1,79923.5
387.7,80791.2
387.3,79755.9
386.9,80200
386.5,80173.5
386.1,79826.5
385.7,79605.9
385.3,79561.8
384.9,79597.1
384.5,79441.2
384.1,79582.4
383.7,80100
383.3,79800
382.9,79911.8
382.5,80002.9
382.1,79538.2
381.7,80379.4
381.3,80297.1
380.9,80764.7
380.5,79552.9
380.1,78294.1
379.7,79976.5
379.3,77961.8
378.9,78938.2
378.5,78652.9
378.1,79173.5
377.7,79082.4
377.3,78688.2
376.9,79435.3
376.5,77967.6
376.1,78235.3
375.7,78435.3
375.3,79164.7
374.9,77655.9
374.5,78267.6
374.1,78129.4
373.7,78329.4
373.3,78635.3
372.9,78432.4
372.5,77135.3
372.1,77711.8
371.7,77308.8
371.3,76688.2
370.9,76144.1
370.5,76600
370.1,76297.1
369.7,75355.9
369.3,75738.2
368.9,75020.6
368.5,75076.5
368.1,75961.8
367.7,74905.9
367.3,75052.9
366.9,75120.6
366.5,74264.7
366.1,75194.1
365.7,74417.6
365.3,73982.4
364.9,74179.4
364.5,75082.4
364.1,73344.1
363.7,73570.6
363.3,73332.4
362.9,73405.9
362.5,74370.6
362.1,72441.2
361.7,73679.4
361.3,72352.9
360.9,73361.8
360.5,73967.6
360.1,73526.5
359.7,72988.2
359.3,73076.5
358.9,73429.4
358.5,73032.4
358.1,74335.3
357.7,74750
357.3,75147.1
356.9,75258.8
356.5,75805.9
356.1,76108.8
355.7,77720.6
355.3,78173.5
354.9,80220.6
354.5,82441.2
354.1,82902.9
353.7,84161.8
353.3,84088.2
352.9,82520.6
352.5,81932.4
352.1,80876.5
351.7,78355.9
351.3,77505.9
350.9,74291.2
350.5,72805.9
350.1,71382.4
349.7,69314.7
349.3,68679.4
348.9,67467.6
348.5,65873.5
348.1,66250
347.7,65364.7
347.3,63911.8
346.9,63391.2
346.5,63097.1
346.1,62726.5
345.7,62397.1
345.3,61338.2
344.9,61841.2
344.5,61797.1
344.1,61291.2
343.7,60194.1
343.3,61314.7
342.9,61155.9
342.5,60685.3
342.1,60279.4
341.7,60414.7
341.3,60582.4
340.9,61055.9
340.5,61167.6
340.1,62020.6
339.7,63455.9
339.3,63091.2
338.9,64264.7
338.5,65791.2
338.1,67391.2
337.7,69247.1
337.3,71505.9
336.9,72997.1
336.5,76838.2
336.1,80020.6
335.7,81635.3
335.3,82811.8
334.9,83041.2
334.5,81602.9
334.1,78655.9
333.7,74991.2
333.3,70676.5
332.9,69179.4
332.5,66270.6
332.1,64464.7
331.7,62414.7
331.3,60814.7
330.9,59014.7
330.5,59017.6
330.1,57379.4
329.7,57032.4
329.3,56755.9
328.9,55864.7
328.5,55823.5
328.1,55600
327.7,54923.5
327.3,55570.6
326.9,54591.2
326.5,55155.9
326.1,53997.1
325.7,54320.6
325.3,53588.2
324.9,54023.5
324.5,54144.1
324.1,53914.7
323.7,53770.6
323.3,54438.2
322.9,54317.6
322.5,54232.4
322.1,54273.5
321.7,53579.4
321.3,53735.3
320.9,54261.8
320.5,54285.3
320.1,53626.5
319.7,53567.6
319.3,53811.8
318.9,54388.2
318.5,54011.8
318.1,54232.4
317.7,53576.5
317.3,54129.4
316.9,54385.3
316.5,53841.2
316.1,54673.5
315.7,54073.5
315.3,53655.9
314.9,54288.2
314.5,54032.4
314.1,53802.9
313.7,54744.1
313.3,54326.5
312.9,53820.6
312.5,54555.9
312.1,54494.1
311.7,54720.6
311.3,53691.2
310.9,54723.5
310.5,54297.1
310.1,54947.1
309.7,55155.9
309.3,54447.1
308.9,54500
308.5,54205.9
308.1,54735.3
307.7,54505.9
307.3,54894.1
306.9,55411.8
306.5,55017.6
306.1,54579.4
305.7,54473.5
305.3,54485.3
304.9,54800
304.5,54767.6
304.1,54705.9
303.7,54685.3
303.3,54291.2
302.9,54208.8
302.5,53923.5
302.1,53908.8
301.7,53108.8
301.3,53929.4
300.9,53085.3
300.5,53338.2
300.1,52629.4
299.7,52814.7
299.3,52629.4
298.9,51826.5
298.5,52370.6
298.1,51991.2
297.7,52150
297.3,51867.6
296.9,50970.6
296.5,52023.5
296.1,51541.2
295.7,51550
295.3,51320.6
294.9,51029.4
294.5,51785.3
294.1,52291.2
293.7,54520.6
293.3,58950
292.9,61617.6
292.5,62023.5
292.1,58929.4
291.7,54623.5
291.3,52294.1
290.9,51544.1
290.5,50188.2
290.1,50547.1
289.7,51579.4
289.3,52152.9
288.9,52276.5
288.5,54411.8
288.1,56182.4
287.7,59461.8
287.3,67017.6
286.9,77632.4
286.5,86967.6
286.1,92964.7
285.7,95767.6
285.3,98664.7
284.9,95097.1
284.5,82917.6
284.1,69429.4
283.7,57388.2
283.3,54891.2
282.9,52097.1
282.5,51900
282.1,51167.6
281.7,51141.2
281.3,50364.7
280.9,50394.1
280.5,50385.3
280.1,50738.2
279.7,50494.1
279.3,49785.3
278.9,49888.2
278.5,50470.6
278.1,49905.9
277.7,49450
277.3,50367.6
276.9,50594.1
276.5,50994.1
276.1,50573.5
275.7,50252.9
275.3,50647.1
274.9,50638.2
274.5,50447.1
274.1,50238.2
273.7,49670.6
273.3,50282.4
272.9,50561.8
272.5,50855.9
272.1,50417.6
271.7,50764.7
271.3,50288.2
270.9,50308.8
270.5,50611.8
270.1,50500
269.7,51005.9
269.3,50267.6
268.9,50747.1
268.5,50644.1
268.1,50108.8
267.7,51482.4
267.3,51050
266.9,51179.4
266.5,50697.1
266.1,50332.4
265.7,50264.7
265.3,51826.5
264.9,50847.1
264.5,51032.4
264.1,50779.4
263.7,51508.8
263.3,51432.4
262.9,51176.5
262.5,51494.1
262.1,51050
261.7,51055.9
261.3,51338.2
260.9,50976.5
260.5,51347.1
260.1,51735.3
259.7,50635.3
259.3,51052.9
258.9,51364.7
258.5,51152.9
258.1,51141.2
257.7,51123.5
257.3,51432.4
256.9,51852.9
256.5,51844.1
256.1,51579.4
255.7,51873.5
255.3,52011.8
254.9,52173.5
254.5,51967.6
254.1,52132.4
253.7,51679.4
253.3,51100
252.9,51882.4
252.5,51358.8
252.1,51585.3
251.7,51605.9
251.3,52200
250.9,52138.2
250.5,51779.4
250.1,52226.5
249.7,51705.9
249.3,52091.2
248.9,51641.2
248.5,51935.3
248.1,51361.8
247.7,52050
247.3,52300
246.9,51961.8
246.5,51561.8
246.1,51952.9
245.7,51811.8
245.3,51538.2
244.9,51914.7
244.5,52314.7
244.1,51320.6
243.7,51626.5
243.3,51579.4
242.9,51408.8
242.5,51202.9
242.1,52302.9
241.7,51988.2
241.3,52061.8
240.9,51761.8
240.5,52091.2
240.1,52300
239.7,51111.8
239.3,51432.4
238.9,52276.5
238.5,51955.9
238.1,52464.7
237.7,52667.6
237.3,52123.5
236.9,52602.9
236.5,53423.5
236.1,53050
235.7,54050
235.3,54264.7
234.9,55529.4
234.5,56505.9
234.1,57335.3
233.7,59285.3
233.3,61205.9
232.9,61367.6
232.5,61935.3
232.1,60167.6
231.7,59014.7
231.3,56614.7
230.9,55429.4
230.5,54626.5
230.1,54902.9
229.7,53747.1
229.3,54235.3
228.9,53438.2
228.5,52264.7
228.1,53402.9
227.7,51964.7
227.3,52373.5
226.9,52491.2
226.5,52832.4
226.1,53491.2
225.7,52355.9
225.3,52550
224.9,52505.9
224.5,52126.5
224.1,52091.2
223.7,52791.2
223.3,52061.8
222.9,52282.4
222.5,53152.9
222.1,51911.8
221.7,52626.5
221.3,52655.9
220.9,52347.1
220.5,52882.4
220.1,53350
219.7,52573.5
219.3,51935.3
218.9,52597.1
218.5,53023.5
218.1,52676.5
217.7,52317.6
217.3,52626.5
216.9,52973.5
216.5,52791.2
216.1,52426.5
215.7,52817.6
215.3,52791.2
214.9,52938.2
214.5,52923.5
214.1,52738.2
213.7,52582.4
213.3,53244.1
212.9,53002.9
212.5,53170.6
212.1,53767.6
211.7,52814.7
211.3,52902.9
210.9,53117.6
210.5,53411.8
210.1,53352.9
209.7,52808.8
209.3,52844.1
208.9,52550
208.5,52452.9
208.1,53579.4
207.7,53097.1
207.3,52491.2
206.9,53147.1
206.5,53455.9
206.1,52700
205.7,53302.9
205.3,52891.2
204.9,53091.2
204.5,53600
204.1,54091.2
203.7,53476.5
203.3,52597.1
202.9,52814.7
202.5,53458.8
202.1,53526.5
201.7,53120.6
201.3,53897.1
200.9,52470.6
200.5,53358.8
200.1,54026.5
199.7,53211.8
199.3,53105.9
198.9,53952.9
198.5,53479.4
198.1,54564.7
197.7,54152.9
197.3,53250
196.9,53941.2
196.5,53570.6
196.1,53414.7
195.7,53326.5
195.3,53455.9
194.9,53047.1
194.5,53788.2
194.1,53852.9
193.7,54270.6
193.3,53882.4
192.9,54311.8
192.5,53582.4
192.1,53491.2
191.7,54276.5
191.3,53920.6
190.9,54132.4
190.5,53791.2
190.1,53497.1
189.7,53091.2
189.3,54129.4
188.9,54058.8
188.5,52823.5
188.1,53767.6
187.7,53897.1
187.3,54117.6
186.9,53108.8
186.5,54273.5
186.1,53973.5
185.7,53202.9
185.3,53597.1
184.9,53602.9
184.5,53550
184.1,52905.9
183.7,53108.8
183.3,53752.9
182.9,53541.2
182.5,53061.8
182.1,53852.9
181.7,52694.1
181.3,53441.2
180.9,52758.8
180.5,52691.2
180.1,51923.5
179.7,53344.1
179.3,52650
178.9,53414.7
178.5,52967.6
178.1,53126.5
177.7,52470.6
177.3,52532.4
176.9,52811.8
176.5,51655.9
176.1,52364.7
175.7,52644.1
175.3,51879.4
174.9,52226.5
174.5,51641.2
174.1,51950
173.7,51888.2
173.3,51964.7
172.9,52811.8
172.5,52320.6
172.1,52241.2
171.7,53291.2
171.3,54276.5
170.9,56197.1
170.5,59241.2
170.1,63317.6
169.7,65973.5
169.3,69491.2
168.9,69991.2
168.5,68679.4
168.1,62361.8
167.7,56570.6
167.3,53511.8
166.9,52782.4
166.5,52788.2
166.1,52508.8
165.7,51911.8
165.3,52005.9
164.9,51776.5
164.5,51782.4
164.1,52841.2
163.7,51523.5
163.3,51658.8
162.9,52211.8
162.5,51729.4
162.1,51529.4
161.7,52423.5
161.3,51273.5
160.9,52058.8
160.5,51382.4
160.1,50858.8
159.7,50570.6
159.3,50970.6
158.9,51097.1
158.5,51473.5
158.1,50635.3
157.7,51597.1
157.3,51458.8
156.9,50452.9
156.5,50858.8
156.1,51282.4
155.7,51252.9
155.3,50538.2
154.9,51335.3
154.5,50279.4
154.1,50323.5
153.7,50441.2
153.3,50811.8
152.9,50941.2
152.5,50985.3
152.1,50973.5
151.7,50347.1
151.3,50267.6
150.9,50755.9
150.5,50405.9
150.1,50532.4
149.7,49794.1
149.3,49876.5
148.9,49758.8
148.5,49967.6
148.1,50947.1
147.7,50579.4
147.3,50970.6
146.9,50711.8
146.5,49479.4
146.1,50397.1
145.7,49952.9
145.3,50652.9
144.9,49955.9
144.5,49791.2
144.1,49620.6
143.7,49711.8
143.3,49914.7
142.9,49732.4
142.5,49814.7
142.1,49238.2
141.7,49638.2
141.3,48585.3
140.9,49267.6
140.5,49594.1
140.1,49591.2
139.7,48444.1
139.3,48688.2
138.9,48635.3
138.5,49676.5
138.1,48852.9
137.7,49670.6
137.3,48955.9
136.9,49102.9
136.5,48952.9
136.1,48523.5
135.7,48555.9
135.3,48973.5
134.9,49188.2
134.5,48494.1
134.1,48755.9
133.7,47885.3
133.3,48235.3
132.9,47888.2
132.5,48847.1
132.1,48355.9
131.7,47385.3
131.3,48344.1
130.9,48317.6
130.5,47458.8
130.1,47647.1
129.7,46997.1
129.3,47920.6
128.9,47179.4
128.5,46320.6
128.1,46079.4
127.7,47661.8
127.3,46405.9
126.9,46852.9
126.5,46508.8
126.1,46232.4
125.7,46632.4
125.3,46426.5
124.9,45461.8
124.5,46235.3
124.1,46041.2
123.7,45838.2
123.3,45585.3
122.9,45517.6
122.5,45450
122.1,45155.9
121.7,45182.4
121.3,45011.8
120.9,44723.5
120.5,45429.4
120.1,45097.1
119.7,44935.3
119.3,44402.9
118.9,45047.1
118.5,44279.4
118.1,45314.7
117.7,44708.8
117.3,44458.8
116.9,45070.6
116.5,44811.8
116.1,44491.2
115.7,45364.7
115.3,45552.9
114.9,44867.6
114.5,45173.5
114.1,44255.9
113.7,45076.5
113.3,45594.1
112.9,45897.1
112.5,45420.6
112.1,45958.8
111.7,45382.4
111.3,46523.5
110.9,45726.5
110.5,45426.5
110.1,45411.8
109.7,45105.9
109.3,44858.8
108.9,44691.2
108.5,44829.4
108.1,44138.2
107.7,44323.5
107.3,43782.4
106.9,43914.7
106.5,42820.6
106.1,42747.1
105.7,42076.5
105.3,41455.9
104.9,41555.9
104.5,40129.4
104.1,40170.6
103.7,38835.3
103.3,38508.8
102.9,37882.4
102.5,37635.3
102.1,36855.9
101.7,36117.6
101.3,36258.8
100.9,34373.5
100.5,34158.8
100.1,33841.2
99.7,32744.1
99.3,32173.5
98.9,30988.2
98.5,31044.1
98.1,30358.8
97.7,29376.5
97.3,28476.5
96.9,27600
96.5,26861.8
96.1,26147.1
95.7,25232.4
95.3,25570.6
94.9,24852.9
94.5,24458.8
94.1,23879.4
93.7,24067.6
93.3,22944.1
92.9,22876.5
92.5,22123.5
92.1,22661.8
91.7,22705.9
91.3,22991.2
90.9,23973.5
90.5,24979.4
90.1,26767.6
89.7,29770.6
89.3,35000
88.9,45520.6
88.5,64644.1
88.1,89567.6
87.7,102759
87.3,84582.4
86.9,55176.5
86.5,37229.4
86.1,32697.1
85.7,36467.6
85.3,46117.6
84.9,67494.1
84.5,99058.8
84.1,119841
83.7,102782
83.3,62979.4
82.9,32800
82.5,21350
82.1,16729.4
81.7,15026.5
81.3,14041.2
80.9,13308.8
80.5,12779.4
80.1,11902.9
79.7,11450
79.3,11423.5
78.9,11020.6
78.5,10497.1
78.1,10867.6
77.7,10414.7
77.3,10638.2
76.9,10244.1
76.5,10317.6
76.1,10447.1
75.7,10358.8
75.3,10491.2
74.9,10123.5
74.5,10320.6
74.1,10408.8
73.7,9964.71
73.3,10232.4
72.9,9947.06
72.5,9905.88
72.1,9588.24
71.7,9541.18
71.3,9088.24
70.9,9282.35
70.5,9073.53
70.1,8938.24
69.7,9211.76
69.3,8702.94
68.9,8591.18
68.5,8273.53
68.1,8300
67.7,8285.29
67.3,8264.71
66.9,8297.06
66.5,8105.88
66.1,8205.88
65.7,8385.29
65.3,8070.59
64.9,8079.41
64.5,8564.71
64.1,8332.35
63.7,8464.71
63.3,8841.18
62.9,8629.41
62.5,8835.29
62.1,8920.59
61.7,8308.82
61.3,8582.35
60.9,8982.35
60.5,9035.29
60.1,9091.18
59.7,9441.18
59.3,9550
58.9,9773.53
58.5,10441.2
58.1,10141.2
57.7,10391.2
57.3,10147.1
56.9,10632.4
56.5,10285.3
56.1,9844.12
55.7,9729.41
55.3,9432.35
54.9,8852.94
54.5,8914.71
54.1,8494.12
53.7,8529.41
53.3,8150
52.9,7685.29
52.5,7820.59
52.1,7526.47
51.7,7361.76
51.3,7185.29
50.9,7405.88
50.5,7302.94
50.1,7047.06
49.7,7029.41
49.3,7002.94
48.9,6700
48.5,6832.35
48.1,6567.65
47.7,6679.41
47.3,6620.59
46.9,6617.65
46.5,6532.35
46.1,6429.41
45.7,6217.65
45.3,6355.88
44.9,6373.53
44.5,6394.12
44.1,6255.88
43.7,6420.59
43.3,6211.76
42.9,6358.82
42.5,6223.53
42.1,6279.41
41.7,6176.47
41.3,6161.76
40.9,6379.41
40.5,6394.12
40.1,6385.29
39.7,6338.24
39.3,6423.53
38.9,6355.88
38.5,6685.29
38.1,6561.76
37.7,6876.47
37.3,7102.94
36.9,7088.24
36.5,7385.29
36.1,7600
35.7,7685.29
35.3,8111.76
34.9,7985.29
34.5,8297.06
34.1,8538.24
33.7,8423.53
33.3,8097.06
32.9,7841.18
32.5,8188.24
32.1,7591.18
31.7,7570.59
31.3,7120.59
30.9,7235.29
30.5,7158.82
30.1,6897.06
29.7,6950
29.3,6944.12
28.9,6826.47
28.5,6585.29
28.1,6511.76
27.7,6450
27.3,6808.82
26.9,6535.29
26.5,6355.88
26.1,6335.29
25.7,6329.41
25.3,6155.88
24.9,6182.35
24.5,6067.65
24.1,5735.29
23.7,5761.76
23.3,5317.65
22.9,5188.24
22.5,4879.41
22.1,5017.65
21.7,4744.12
21.3,4879.41
20.9,4700
20.5,4741.18
20.1,4629.41
19.7,5152.94
19.3,5341.18
18.9,5579.41
18.5,5602.94
18.1,5258.82
17.7,4814.71
17.3,4732.35
16.9,4455.88
16.5,4167.65
16.1,4279.41
15.7,4450
15.3,4423.53
14.9,4211.76
14.5,4170.59
14.1,3838.24
13.7,3620.59
13.3,3476.47
12.9,3429.41
12.5,3723.53
12.1,3991.18
11.7,4026.47
11.3,4205.88
10.9,4400
10.5,4767.65
10.1,4438.24
9.7,4067.65
9.3,3817.65
8.9,3982.35
8.5,4438.24
8.1,5547.06
7.7,6547.06
7.3,7755.88
6.9,8961.76
6.5,9491.18
6.1,9632.35
5.7,8864.71
5.3,8832.35
4.9,8520.59
4.5,9732.35
4.1,10076.5
3.7,10188.2
3.3,9697.06
2.9,8923.53
2.5,7023.53
2.1,4944.12
1.7,3326.47
1.3,2355.88
0.9,1908.82
0.5,1573.53
0.1,1285.29
-0.3,926.471
-0.7,826.471
-1.1,685.294
