,
,
Characteristic Energy eV,1486.6
BE_Sur1 1,CPS_Sur1 1
1398.6,22244.1
1398.2,22452.9
1397.8,22332.4
1397.4,22380.9
1397,22052.9
1396.6,22014.7
1396.2,22217.6
1395.8,22189.7
1395.4,22102.9
1395,22085.3
1394.6,21742.6
1394.2,21947.1
1393.8,21910.3
1393.4,21877.9
1393,21798.5
1392.6,21900
1392.2,22267.6
1391.8,21322.1
1391.4,21341.2
1391,21472.1
1390.6,21620.6
1390.2,21722.1
1389.8,21269.1
1389.4,21688.2
1389,21630.9
1388.6,21575
1388.2,21333.8
1387.8,21932.4
1387.4,21075
1387,21322.1
1386.6,21511.8
1386.2,21591.2
1385.8,21369.1
1385.4,21201.5
1385,21110.3
1384.6,21569.1
1384.2,21298.5
1383.8,21425
1383.4,21119.1
1383,21011.8
1382.6,21298.5
1382.2,20800
1381.8,21098.5
1381.4,21048.5
1381,20880.9
1380.6,21055.9
1380.2,20925
1379.8,21127.9
1379.4,21061.8
1379,20791.2
1378.6,21164.7
1378.2,20702.9
1377.8,20597.1
1377.4,21066.2
1377,20595.6
1376.6,21019.1
1376.2,20863.2
1375.8,20998.5
1375.4,20788.2
1375,20888.2
1374.6,20676.5
1374.2,20836.8
1373.8,20566.2
1373.4,20452.9
1373,20625
1372.6,20452.9
1372.2,20532.4
1371.8,20825
1371.4,20386.8
1371,20869.1
1370.6,20335.3
1370.2,20405.9
1369.8,20477.9
1369.4,20522.1
1369,20244.1
1368.6,20508.8
1368.2,20348.5
1367.8,20004.4
1367.4,20401.5
1367,20250
1366.6,20179.4
1366.2,20305.9
1365.8,20148.5
1365.4,19770.6
1365,20169.1
1364.6,20380.9
1364.2,20126.5
1363.8,20319.1
1363.4,20210.3
1363,20242.6
1362.6,20352.9
1362.2,19638.2
1361.8,20414.7
1361.4,19845.6
1361,20275
1360.6,20038.2
1360.2,19892.6
1359.8,20310.3
1359.4,19676.5
1359,20347.1
1358.6,20079.4
1358.2,19767.6
1357.8,19922.1
1357.4,19751.5
1357,20045.6
1356.6,19916.2
1356.2,20250
1355.8,19982.4
1355.4,20057.4
1355,20183.8
1354.6,20097.1
1354.2,20170.6
1353.8,19700
1353.4,19788.2
1353,19617.6
1352.6,19764.7
1352.2,19530.9
1351.8,19760.3
1351.4,19585.3
1351,19717.6
1350.6,19952.9
1350.2,19682.4
1349.8,19901.5
1349.4,19791.2
1349,19722.1
1348.6,19510.3
1348.2,19472.1
1347.8,19883.8
1347.4,19573.5
1347,19741.2
1346.6,19588.2
1346.2,19701.5
1345.8,19627.9
1345.4,19516.2
1345,19563.2
1344.6,19435.3
1344.2,19689.7
1343.8,19442.6
1343.4,19655.9
1343,19738.2
1342.6,19657.4
1342.2,19610.3
1341.8,19294.1
1341.4,19239.7
1341,19367.6
1340.6,19492.6
1340.2,19776.5
1339.8,19469.1
1339.4,19623.5
1339,19186.8
1338.6,19283.8
1338.2,19189.7
1337.8,19666.2
1337.4,19091.2
1337,19267.6
1336.6,18942.6
1336.2,19108.8
1335.8,19072.1
1335.4,19172.1
1335,19220.6
1334.6,18963.2
1334.2,19039.7
1333.8,19180.9
1333.4,18936.8
1333,19175
1332.6,18814.7
1332.2,19069.1
1331.8,18930.9
1331.4,19047.1
1331,18977.9
1330.6,18888.2
1330.2,18945.6
1329.8,18560.3
1329.4,19083.8
1329,18848.5
1328.6,18701.5
1328.2,18858.8
1327.8,18532.4
1327.4,18732.4
1327,18801.5
1326.6,18905.9
1326.2,18673.5
1325.8,18552.9
1325.4,18638.2
1325,18561.8
1324.6,18645.6
1324.2,18780.9
1323.8,18963.2
1323.4,18480.9
1323,18948.5
1322.6,18304.4
1322.2,18816.2
1321.8,18811.8
1321.4,18544.1
1321,18870.6
1320.6,18654.4
1320.2,19035.3
1319.8,18489.7
1319.4,18664.7
1319,18766.2
1318.6,18623.5
1318.2,18850
1317.8,18819.1
1317.4,18636.8
1317,18844.1
1316.6,18595.6
1316.2,18836.8
1315.8,18904.4
1315.4,18664.7
1315,18532.4
1314.6,18669.1
1314.2,18776.5
1313.8,18570.6
1313.4,18705.9
1313,18727.9
1312.6,18844.1
1312.2,18811.8
1311.8,18994.1
1311.4,18633.8
1311,18902.9
1310.6,18614.7
1310.2,18751.5
1309.8,18830.9
1309.4,19063.2
1309,19070.6
1308.6,18902.9
1308.2,18995.6
1307.8,18958.8
1307.4,18914.7
1307,18948.5
1306.6,18557.4
1306.2,18719.1
1305.8,18726.5
1305.4,19080.9
1305,18908.8
1304.6,18802.9
1304.2,19130.9
1303.8,18954.4
1303.4,19020.6
1303,18705.9
1302.6,19176.5
1302.2,18872.1
1301.8,18982.4
1301.4,18764.7
1301,19210.3
1300.6,19166.2
1300.2,18989.7
1299.8,19044.1
1299.4,19110.3
1299,18898.5
1298.6,18945.6
1298.2,19013.2
1297.8,19226.5
1297.4,19002.9
1297,19089.7
1296.6,19088.2
1296.2,19180.9
1295.8,18910.3
1295.4,19016.2
1295,19044.1
1294.6,19275
1294.2,19335.3
1293.8,18923.5
1293.4,19247.1
1293,19019.1
1292.6,19148.5
1292.2,19108.8
1291.8,19011.8
1291.4,18982.4
1291,19245.6
1290.6,18998.5
1290.2,19419.1
1289.8,19301.5
1289.4,19314.7
1289,19072.1
1288.6,19170.6
1288.2,19389.7
1287.8,19505.9
1287.4,19420.6
1287,19483.8
1286.6,19148.5
1286.2,19605.9
1285.8,19042.6
1285.4,19492.6
1285,19763.2
1284.6,19272.1
1284.2,19420.6
1283.8,19277.9
1283.4,19605.9
1283,19405.9
1282.6,19519.1
1282.2,19522.1
1281.8,19313.2
1281.4,19541.2
1281,19564.7
1280.6,19800
1280.2,19695.6
1279.8,19202.9
1279.4,19679.4
1279,19820.6
1278.6,19860.3
1278.2,19730.9
1277.8,19698.5
1277.4,19663.2
1277,19500
1276.6,19358.8
1276.2,19613.2
1275.8,19670.6
1275.4,19532.4
1275,19661.8
1274.6,19851.5
1274.2,19947.1
1273.8,19857.4
1273.4,19707.4
1273,19792.6
1272.6,20032.4
1272.2,19464.7
1271.8,19916.2
1271.4,19661.8
1271,20085.3
1270.6,20052.9
1270.2,20213.2
1269.8,19950
1269.4,19833.8
1269,19927.9
1268.6,20192.6
1268.2,19889.7
1267.8,19741.2
1267.4,20016.2
1267,20010.3
1266.6,20475
1266.2,19988.2
1265.8,20247.1
1265.4,20451.5
1265,19975
1264.6,20367.6
1264.2,20192.6
1263.8,20089.7
1263.4,20310.3
1263,20219.1
1262.6,20255.9
1262.2,20345.6
1261.8,20336.8
1261.4,20177.9
1261,20463.2
1260.6,20111.8
1260.2,20382.4
1259.8,20444.1
1259.4,20616.2
1259,20492.6
1258.6,20564.7
1258.2,20375
1257.8,20522.1
1257.4,20780.9
1257,20255.9
1256.6,20589.7
1256.2,20722.1
1255.8,20695.6
1255.4,20094.1
1255,20826.5
1254.6,20457.4
1254.2,20795.6
1253.8,20558.8
1253.4,20423.5
1253,20747.1
1252.6,20892.6
1252.2,20363.2
1251.8,20661.8
1251.4,20817.6
1251,20708.8
1250.6,20482.4
1250.2,21110.3
1249.8,21080.9
1249.4,21395.6
1249,21192.6
1248.6,21029.4
1248.2,21305.9
1247.8,21076.5
1247.4,21529.4
1247,21288.2
1246.6,21513.2
1246.2,21135.3
1245.8,21700
1245.4,21395.6
1245,21266.2
1244.6,21382.4
1244.2,21439.7
1243.8,21713.2
1243.4,21894.1
1243,21454.4
1242.6,21247.1
1242.2,21357.4
1241.8,21566.2
1241.4,21347.1
1241,21538.2
1240.6,21582.4
1240.2,21592.6
1239.8,21395.6
1239.4,21607.4
1239,21460.3
1238.6,21450
1238.2,21658.8
1237.8,21336.8
1237.4,21623.5
1237,21773.5
1236.6,21554.4
1236.2,21707.4
1235.8,21432.4
1235.4,21830.9
1235,21627.9
1234.6,21663.2
1234.2,21770.6
1233.8,21607.4
1233.4,22039.7
1233,21997.1
1232.6,22402.9
1232.2,22057.4
1231.8,22377.9
1231.4,22351.5
1231,22592.6
1230.6,22364.7
1230.2,22475
1229.8,22691.2
1229.4,22322.1
1229,22870.6
1228.6,22988.2
1228.2,23120.6
1227.8,23011.8
1227.4,22727.9
1227,23277.9
1226.6,23163.2
1226.2,23127.9
1225.8,22947.1
1225.4,22789.7
1225,22516.2
1224.6,22600
1224.2,22989.7
1223.8,22725
1223.4,22632.4
1223,23147.1
1222.6,22860.3
1222.2,23139.7
1221.8,22572.1
1221.4,22860.3
1221,22507.4
1220.6,22661.8
1220.2,22136.8
1219.8,22320.6
1219.4,22458.8
1219,22188.2
1218.6,22207.4
1218.2,22170.6
1217.8,21833.8
1217.4,21783.8
1217,21526.5
1216.6,21314.7
1216.2,21192.6
1215.8,21491.2
1215.4,21072.1
1215,21023.5
1214.6,21336.8
1214.2,21088.2
1213.8,20838.2
1213.4,20966.2
1213,20710.3
1212.6,20726.5
1212.2,20770.6
1211.8,20738.2
1211.4,20733.8
1211,20411.8
1210.6,20958.8
1210.2,20939.7
1209.8,20647.1
1209.4,20755.9
1209,20850
1208.6,20979.4
1208.2,20902.9
1207.8,21000
1207.4,20738.2
1207,20738.2
1206.6,20780.9
1206.2,20648.5
1205.8,20888.2
1205.4,20813.2
1205,20797.1
1204.6,20948.5
1204.2,20802.9
1203.8,20819.1
1203.4,20716.2
1203,20642.6
1202.6,20933.8
1202.2,21161.8
1201.8,21280.9
1201.4,20779.4
1201,20880.9
1200.6,20955.9
1200.2,21150
1199.8,21369.1
1199.4,20932.4
1199,21101.5
1198.6,21404.4
1198.2,21133.8
1197.8,21092.6
1197.4,20961.8
1197,21320.6
1196.6,21292.6
1196.2,21208.8
1195.8,21208.8
1195.4,21297.1
1195,21358.8
1194.6,21282.4
1194.2,21388.2
1193.8,21273.5
1193.4,21208.8
1193,21333.8
1192.6,21126.5
1192.2,21657.4
1191.8,21527.9
1191.4,21498.5
1191,21275
1190.6,21297.1
1190.2,21661.8
1189.8,21555.9
1189.4,21604.4
1189,21685.3
1188.6,21601.5
1188.2,21213.2
1187.8,21669.1
1187.4,21682.4
1187,21675
1186.6,21869.1
1186.2,21689.7
1185.8,21576.5
1185.4,21779.4
1185,21980.9
1184.6,21877.9
1184.2,21858.8
1183.8,21666.2
1183.4,22185.3
1183,21836.8
1182.6,21894.1
1182.2,21817.6
1181.8,21838.2
1181.4,21782.4
1181,21969.1
1180.6,22188.2
1180.2,22214.7
1179.8,22107.4
1179.4,21982.4
1179,21908.8
1178.6,22111.8
1178.2,22013.2
1177.8,22298.5
1177.4,21736.8
1177,22219.1
1176.6,21963.2
1176.2,21950
1175.8,22458.8
1175.4,22388.2
1175,22263.2
1174.6,22329.4
1174.2,22033.8
1173.8,22717.6
1173.4,22788.2
1173,22186.8
1172.6,22857.4
1172.2,22133.8
1171.8,22375
1171.4,22608.8
1171,22344.1
1170.6,22792.6
1170.2,22579.4
1169.8,22647.1
1169.4,22785.3
1169,22467.6
1168.6,22538.2
1168.2,22507.4
1167.8,22580.9
1167.4,22720.6
1167,22777.9
1166.6,22811.8
1166.2,22539.7
1165.8,22939.7
1165.4,22382.4
1165,23098.5
1164.6,22702.9
1164.2,22863.2
1163.8,22858.8
1163.4,22816.2
1163,22748.5
1162.6,22498.5
1162.2,22873.5
1161.8,23136.8
1161.4,22835.3
1161,23217.6
1160.6,23019.1
1160.2,23395.6
1159.8,23054.4
1159.4,23477.9
1159,23132.4
1158.6,23123.5
1158.2,22719.1
1157.8,23379.4
1157.4,23592.6
1157,23117.6
1156.6,23286.8
1156.2,23504.4
1155.8,23227.9
1155.4,23419.1
1155,23413.2
1154.6,23572.1
1154.2,23405.9
1153.8,23351.5
1153.4,23620.6
1153,23383.8
1152.6,23325
1152.2,23225
1151.8,23175
1151.4,23402.9
1151,23576.5
1150.6,23839.7
1150.2,24117.6
1149.8,23788.2
1149.4,23744.1
1149,23507.4
1148.6,23757.4
1148.2,23627.9
1147.8,23358.8
1147.4,23639.7
1147,23641.2
1146.6,23638.2
1146.2,23945.6
1145.8,23822.1
1145.4,23777.9
1145,24000
1144.6,24136.8
1144.2,23794.1
1143.8,23754.4
1143.4,23917.6
1143,24179.4
1142.6,24126.5
1142.2,24136.8
1141.8,24094.1
1141.4,24275
1141,24498.5
1140.6,24189.7
1140.2,24170.6
1139.8,24294.1
1139.4,24191.2
1139,24405.9
1138.6,24114.7
1138.2,24194.1
1137.8,24360.3
1137.4,24100
1137,24520.6
1136.6,24189.7
1136.2,24352.9
1135.8,24608.8
1135.4,24547.1
1135,24469.1
1134.6,24388.2
1134.2,24563.2
1133.8,24479.4
1133.4,24427.9
1133,24398.5
1132.6,24601.5
1132.2,24769.1
1131.8,24691.2
1131.4,24097.1
1131,24708.8
1130.6,24476.5
1130.2,24914.7
1129.8,24786.8
1129.4,24870.6
1129,24829.4
1128.6,24560.3
1128.2,24800
1127.8,24847.1
1127.4,25029.4
1127,25073.5
1126.6,25027.9
1126.2,25073.5
1125.8,24783.8
1125.4,25076.5
1125,25535.3
1124.6,25151.5
1124.2,25167.6
1123.8,24916.2
1123.4,25125
1123,24948.5
1122.6,24935.3
1122.2,25041.2
1121.8,25405.9
1121.4,25450
1121,24688.2
1120.6,25313.2
1120.2,25426.5
1119.8,25526.5
1119.4,25647.1
1119,25685.3
1118.6,25252.9
1118.2,25433.8
1117.8,25450
1117.4,25547.1
1117,25535.3
1116.6,25495.6
1116.2,25185.3
1115.8,25133.8
1115.4,25319.1
1115,25389.7
1114.6,25351.5
1114.2,25411.8
1113.8,25861.8
1113.4,25623.5
1113,25208.8
1112.6,25592.6
1112.2,25914.7
1111.8,25842.6
1111.4,26161.8
1111,25823.5
1110.6,25739.7
1110.2,25832.4
1109.8,25986.8
1109.4,25567.6
1109,25791.2
1108.6,26122.1
1108.2,25913.2
1107.8,26085.3
1107.4,26007.4
1107,25711.8
1106.6,26110.3
1106.2,26129.4
1105.8,26225
1105.4,26002.9
1105,26386.8
1104.6,26200
1104.2,26152.9
1103.8,26257.4
1103.4,26383.8
1103,25936.8
1102.6,26248.5
1102.2,25857.4
1101.8,26102.9
1101.4,26047.1
1101,26025
1100.6,26302.9
1100.2,26026.5
1099.8,26025
1099.4,26289.7
1099,26563.2
1098.6,25608.8
1098.2,25823.5
1097.8,26032.4
1097.4,25707.4
1097,25936.8
1096.6,25717.6
1096.2,26213.2
1095.8,26444.1
1095.4,26344.1
1095,25883.8
1094.6,25969.1
1094.2,25747.1
1093.8,25848.5
1093.4,25991.2
1093,25845.6
1092.6,26151.5
1092.2,26225
1091.8,25948.5
1091.4,25927.9
1091,25894.1
1090.6,25550
1090.2,25836.8
1089.8,26105.9
1089.4,26277.9
1089,26033.8
1088.6,26167.6
1088.2,25764.7
1087.8,26185.3
1087.4,26183.8
1087,26261.8
1086.6,26100
1086.2,26026.5
1085.8,26095.6
1085.4,25750
1085,26135.3
1084.6,26614.7
1084.2,25876.5
1083.8,25913.2
1083.4,26073.5
1083,25592.6
1082.6,26388.2
1082.2,26182.4
1081.8,26230.9
1081.4,26039.7
1081,26236.8
1080.6,26216.2
1080.2,26202.9
1079.8,26116.2
1079.4,26297.1
1079,26438.2
1078.6,26297.1
1078.2,26252.9
1077.8,26766.2
1077.4,26083.8
1077,26530.9
1076.6,26877.9
1076.2,26314.7
1075.8,26602.9
1075.4,26388.2
1075,26386.8
1074.6,26483.8
1074.2,26975
1073.8,26658.8
1073.4,26723.5
1073,26830.9
1072.6,26933.8
1072.2,27010.3
1071.8,26933.8
1071.4,27261.8
1071,26358.8
1070.6,26776.5
1070.2,27136.8
1069.8,26914.7
1069.4,27219.1
1069,26883.8
1068.6,26958.8
1068.2,26670.6
1067.8,27007.4
1067.4,27094.1
1067,26801.5
1066.6,26850
1066.2,27291.2
1065.8,27092.6
1065.4,26966.2
1065,27038.2
1064.6,27126.5
1064.2,27375
1063.8,27348.5
1063.4,27225
1063,27136.8
1062.6,26982.4
1062.2,27286.8
1061.8,27133.8
1061.4,27398.5
1061,27445.6
1060.6,27252.9
1060.2,27625
1059.8,27244.1
1059.4,27316.2
1059,27423.5
1058.6,27470.6
1058.2,27435.3
1057.8,27735.3
1057.4,27897.1
1057,27786.8
1056.6,27351.5
1056.2,27917.6
1055.8,27445.6
1055.4,27772.1
1055,27835.3
1054.6,27644.1
1054.2,27670.6
1053.8,27817.6
1053.4,27729.4
1053,28079.4
1052.6,27589.7
1052.2,27713.2
1051.8,27763.2
1051.4,27936.8
1051,27970.6
1050.6,28155.9
1050.2,28108.8
1049.8,27701.5
1049.4,28076.5
1049,28336.8
1048.6,28177.9
1048.2,28279.4
1047.8,28166.2
1047.4,28464.7
1047,28033.8
1046.6,28092.6
1046.2,28158.8
1045.8,28076.5
1045.4,27960.3
1045,28147.1
1044.6,28148.5
1044.2,28300
1043.8,28547.1
1043.4,28272.1
1043,28473.5
1042.6,28411.8
1042.2,29160.3
1041.8,28110.3
1041.4,28129.4
1041,28410.3
1040.6,28491.2
1040.2,28558.8
1039.8,28604.4
1039.4,28333.8
1039,28602.9
1038.6,28720.6
1038.2,28855.9
1037.8,28370.6
1037.4,28626.5
1037,28822.1
1036.6,28776.5
1036.2,28610.3
1035.8,29048.5
1035.4,28647.1
1035,29260.3
1034.6,28932.4
1034.2,29342.6
1033.8,29104.4
1033.4,28925
1033,29238.2
1032.6,28945.6
1032.2,29129.4
1031.8,29211.8
1031.4,29163.2
1031,29329.4
1030.6,29389.7
1030.2,29361.8
1029.8,29317.6
1029.4,29607.4
1029,29008.8
1028.6,29530.9
1028.2,29122.1
1027.8,29882.4
1027.4,29654.4
1027,29423.5
1026.6,29269.1
1026.2,29817.6
1025.8,29413.2
1025.4,29563.2
1025,29680.9
1024.6,29655.9
1024.2,29579.4
1023.8,29952.9
1023.4,29920.6
1023,30029.4
1022.6,30157.4
1022.2,29705.9
1021.8,30350
1021.4,30291.2
1021,29926.5
1020.6,30222.1
1020.2,29969.1
1019.8,30248.5
1019.4,29835.3
1019,30172.1
1018.6,30213.2
1018.2,30147.1
1017.8,30794.1
1017.4,30204.4
1017,30386.8
1016.6,29939.7
1016.2,30013.2
1015.8,30172.1
1015.4,30367.6
1015,30091.2
1014.6,30275
1014.2,30161.8
1013.8,30194.1
1013.4,30205.9
1013,30188.2
1012.6,30464.7
1012.2,30270.6
1011.8,30469.1
1011.4,30205.9
1011,30239.7
1010.6,30939.7
1010.2,30327.9
1009.8,30526.5
1009.4,30394.1
1009,30644.1
1008.6,30529.4
1008.2,30385.3
1007.8,31038.2
1007.4,30710.3
1007,30616.2
1006.6,30702.9
1006.2,30925
1005.8,30779.4
1005.4,31008.8
1005,30810.3
1004.6,31057.4
1004.2,31047.1
1003.8,30935.3
1003.4,30957.4
1003,31232.4
1002.6,31294.1
1002.2,31652.9
1001.8,31455.9
1001.4,31570.6
1001,31370.6
1000.6,31348.5
1000.2,31530.9
999.8,31416.2
999.4,32189.7
999,31414.7
998.6,31392.6
998.2,31327.9
997.8,31400
997.4,31032.4
997,31519.1
996.6,31533.8
996.2,31388.2
995.8,31875
995.4,31661.8
995,31726.5
994.6,30944.1
994.2,31258.8
993.8,31033.8
993.4,31235.3
993,31283.8
992.6,30969.1
992.2,30952.9
991.8,30914.7
991.4,30994.1
991,30858.8
990.6,30677.9
990.2,30611.8
989.8,30842.6
989.4,30575
989,30541.2
988.6,31035.3
988.2,30277.9
987.8,30985.3
987.4,30977.9
987,30911.8
986.6,30616.2
986.2,30730.9
985.8,30705.9
985.4,30977.9
985,30779.4
984.6,31373.5
984.2,30950
983.8,31017.6
983.4,31369.1
983,31288.2
982.6,31676.5
982.2,31661.8
981.8,32113.2
981.4,32345.6
981,32461.8
980.6,32438.2
980.2,32545.6
979.8,32405.9
979.4,33322.1
979,33217.6
978.6,33208.8
978.2,33223.5
977.8,32929.4
977.4,32952.9
977,33682.4
976.6,33660.3
976.2,33520.6
975.8,33239.7
975.4,33085.3
975,32616.2
974.6,32661.8
974.2,32898.5
973.8,32395.6
973.4,32355.9
973,32236.8
972.6,31920.6
972.2,31611.8
971.8,31432.4
971.4,31760.3
971,30910.3
970.6,30635.3
970.2,30505.9
969.8,29858.8
969.4,29908.8
969,30000
968.6,30025
968.2,29589.7
967.8,29688.2
967.4,29567.6
967,28988.2
966.6,29369.1
966.2,28954.4
965.8,29185.3
965.4,28994.1
965,29057.4
964.6,28970.6
964.2,29254.4
963.8,29775
963.4,29504.4
963,29332.4
962.6,29930.9
962.2,30095.6
961.8,30107.4
961.4,29902.9
961,29717.6
960.6,29725
960.2,29439.7
959.8,28654.4
959.4,28975
959,28935.3
958.6,28570.6
958.2,28813.2
957.8,28626.5
957.4,28564.7
957,28616.2
956.6,28808.8
956.2,28770.6
955.8,28861.8
955.4,29108.8
955,29791.2
954.6,29866.2
954.2,29994.1
953.8,29808.8
953.4,30258.8
953,30066.2
952.6,30201.5
952.2,30623.5
951.8,30857.4
951.4,31457.4
951,31772.1
950.6,30379.4
950.2,29220.6
949.8,28041.2
949.4,27620.6
949,26955.9
948.6,27413.2
948.2,27032.4
947.8,27108.8
947.4,26580.9
947,26760.3
946.6,26819.1
946.2,26836.8
945.8,26814.7
945.4,26932.4
945,26941.2
944.6,27039.7
944.2,27507.4
943.8,27869.1
943.4,28267.6
943,28502.9
942.6,28172.1
942.2,28123.5
941.8,28170.6
941.4,28219.1
941,27760.3
940.6,27726.5
940.2,27914.7
939.8,27655.9
939.4,27308.8
939,27272.1
938.6,27098.5
938.2,26813.2
937.8,26413.2
937.4,26925
937,26607.4
936.6,27035.3
936.2,27170.6
935.8,27605.9
935.4,27860.3
935,28766.2
934.6,29632.4
934.2,30514.7
933.8,31067.6
933.4,31051.5
933,30797.1
932.6,30682.4
932.2,31857.4
931.8,33922.1
931.4,35355.9
931,33652.9
930.6,29980.9
930.2,27188.2
929.8,25860.3
929.4,25310.3
929,25163.2
928.6,25080.9
928.2,24910.3
927.8,24802.9
927.4,24711.8
927,24850
926.6,24608.8
926.2,24760.3
925.8,24833.8
925.4,24741.2
925,24714.7
924.6,24767.6
924.2,24692.6
923.8,24795.6
923.4,24844.1
923,24516.2
922.6,24854.4
922.2,25100
921.8,24873.5
921.4,24969.1
921,24992.6
920.6,25158.8
920.2,24688.2
919.8,24939.7
919.4,25030.9
919,24711.8
918.6,24958.8
918.2,24805.9
917.8,24736.8
917.4,25113.2
917,24975
916.6,25400
916.2,25386.8
915.8,25032.4
915.4,25052.9
915,25145.6
914.6,25163.2
914.2,25264.7
913.8,24964.7
913.4,25305.9
913,25357.4
912.6,25344.1
912.2,25082.4
911.8,25497.1
911.4,25466.2
911,25300
910.6,25638.2
910.2,25567.6
909.8,25266.2
909.4,25476.5
909,25461.8
908.6,25422.1
908.2,25216.2
907.8,25879.4
907.4,25720.6
907,26017.6
906.6,25305.9
906.2,25276.5
905.8,25810.3
905.4,25519.1
905,25500
904.6,25505.9
904.2,25617.6
903.8,25848.5
903.4,25747.1
903,26035.3
902.6,25558.8
902.2,25679.4
901.8,25747.1
901.4,26213.2
901,25701.5
900.6,25801.5
900.2,25745.6
899.8,25780.9
899.4,26036.8
899,25917.6
898.6,25767.6
898.2,25683.8
897.8,26120.6
897.4,26144.1
897,25973.5
896.6,25832.4
896.2,26511.8
895.8,26241.2
895.4,26458.8
895,26439.7
894.6,26282.4
894.2,26435.3
893.8,26648.5
893.4,26329.4
893,26297.1
892.6,26213.2
892.2,26500
891.8,26423.5
891.4,26202.9
891,26657.4
890.6,26510.3
890.2,26777.9
889.8,26957.4
889.4,26658.8
889,26397.1
888.6,26641.2
888.2,26883.8
887.8,26876.5
887.4,26898.5
887,26830.9
886.6,27258.8
886.2,26883.8
885.8,26802.9
885.4,27050
885,27242.6
884.6,27416.2
884.2,27329.4
883.8,27629.4
883.4,27510.3
883,27367.6
882.6,27408.8
882.2,27397.1
881.8,27552.9
881.4,27850
881,27439.7
880.6,27673.5
880.2,27457.4
879.8,27454.4
879.4,27452.9
879,28001.5
878.6,27495.6
878.2,27638.2
877.8,27735.3
877.4,27720.6
877,27717.6
876.6,27698.5
876.2,27722.1
875.8,27379.4
875.4,27301.5
875,27591.2
874.6,27601.5
874.2,27819.1
873.8,27902.9
873.4,27663.2
873,27767.6
872.6,27739.7
872.2,27686.8
871.8,27836.8
871.4,27710.3
871,27694.1
870.6,27360.3
870.2,27655.9
869.8,27701.5
869.4,28185.3
869,27486.8
868.6,27819.1
868.2,27829.4
867.8,27819.1
867.4,27814.7
867,27929.4
866.6,27898.5
866.2,28375
865.8,28539.7
865.4,28057.4
865,28383.8
864.6,28870.6
864.2,28866.2
863.8,28989.7
863.4,29117.6
863,29155.9
862.6,29508.8
862.2,29636.8
861.8,29670.6
861.4,29519.1
861,29983.8
860.6,30002.9
860.2,29704.4
859.8,29873.5
859.4,30389.7
859,29733.8
858.6,29935.3
858.2,29548.5
857.8,29782.4
857.4,29126.5
857,29542.6
856.6,29010.3
856.2,28991.2
855.8,29308.8
855.4,29216.2
855,29347.1
854.6,29102.9
854.2,28972.1
853.8,28994.1
853.4,29094.1
853,29577.9
852.6,29061.8
852.2,28927.9
851.8,28822.1
851.4,28961.8
851,28850
850.6,28307.4
850.2,28736.8
849.8,28204.4
849.4,28517.6
849,28595.6
848.6,28439.7
848.2,28570.6
847.8,28260.3
847.4,28604.4
847,28061.8
846.6,28527.9
846.2,28116.2
845.8,28220.6
845.4,28183.8
845,27930.9
844.6,27838.2
844.2,28008.8
843.8,27629.4
843.4,28388.2
843,28204.4
842.6,27822.1
842.2,28713.2
841.8,28666.2
841.4,28542.6
841,28726.5
840.6,28451.5
840.2,28558.8
839.8,28720.6
839.4,28979.4
839,29169.1
838.6,29677.9
838.2,29769.1
837.8,30332.4
837.4,30985.3
837,31682.4
836.6,31701.5
836.2,32370.6
835.8,33030.9
835.4,33810.3
835,33411.8
834.6,34301.5
834.2,34945.6
833.8,34986.8
833.4,35402.9
833,35291.2
832.6,34825
832.2,34208.8
831.8,33548.5
831.4,33032.4
831,32867.6
830.6,32282.4
830.2,31323.5
829.8,30945.6
829.4,30845.6
829,30804.4
828.6,30276.5
828.2,30167.6
827.8,30151.5
827.4,29836.8
827,29958.8
826.6,29242.6
826.2,29525
825.8,29020.6
825.4,28600
825,28326.5
824.6,27445.6
824.2,27616.2
823.8,27166.2
823.4,26352.9
823,26645.6
822.6,26422.1
822.2,26201.5
821.8,25936.8
821.4,25614.7
821,25926.5
820.6,26411.8
820.2,25797.1
819.8,26229.4
819.4,25814.7
819,26292.6
818.6,25661.8
818.2,26217.6
817.8,25763.2
817.4,25935.3
817,25451.5
816.6,25972.1
816.2,25825
815.8,26092.6
815.4,25552.9
815,25863.2
814.6,25813.2
814.2,25657.4
813.8,25882.4
813.4,25839.7
813,25458.8
812.6,25795.6
812.2,25932.4
811.8,25622.1
811.4,25923.5
811,25832.4
810.6,25692.6
810.2,26019.1
809.8,25901.5
809.4,25848.5
809,25900
808.6,25844.1
808.2,25797.1
807.8,25769.1
807.4,25800
807,26267.6
806.6,25841.2
806.2,25980.9
805.8,26025
805.4,25914.7
805,26066.2
804.6,25957.4
804.2,26351.5
803.8,25929.4
803.4,25955.9
803,25632.4
802.6,26182.4
802.2,25532.4
801.8,26101.5
801.4,26047.1
801,26105.9
800.6,26226.5
800.2,26107.4
799.8,25802.9
799.4,26342.6
799,25829.4
798.6,26273.5
798.2,26232.4
797.8,26295.6
797.4,26188.2
797,26135.3
796.6,26397.1
796.2,26239.7
795.8,26319.1
795.4,26352.9
795,26458.8
794.6,26567.6
794.2,26589.7
793.8,26889.7
793.4,26529.4
793,26319.1
792.6,26797.1
792.2,26551.5
791.8,26779.4
791.4,26417.6
791,26523.5
790.6,26813.2
790.2,26573.5
789.8,26372.1
789.4,26620.6
789,26564.7
788.6,26860.3
788.2,26579.4
787.8,26683.8
787.4,26847.1
787,26944.1
786.6,26829.4
786.2,26733.8
785.8,26852.9
785.4,26844.1
785,26608.8
784.6,26651.5
784.2,26783.8
783.8,26689.7
783.4,27016.2
783,26739.7
782.6,26673.5
782.2,27254.4
781.8,26930.9
781.4,26819.1
781,27058.8
780.6,27145.6
780.2,26627.9
779.8,27119.1
779.4,27380.9
779,26969.1
778.6,27010.3
778.2,26641.2
777.8,27213.2
777.4,27064.7
777,27485.3
776.6,26925
776.2,27022.1
775.8,27041.2
775.4,27205.9
775,26986.8
774.6,27577.9
774.2,27342.6
773.8,27551.5
773.4,27036.8
773,27213.2
772.6,27310.3
772.2,27170.6
771.8,27591.2
771.4,27548.5
771,27701.5
770.6,27229.4
770.2,27214.7
769.8,27147.1
769.4,27120.6
769,27214.7
768.6,27652.9
768.2,27445.6
767.8,27338.2
767.4,27270.6
767,27508.8
766.6,27589.7
766.2,27245.6
765.8,27570.6
765.4,27489.7
765,27519.1
764.6,27444.1
764.2,27477.9
763.8,27520.6
763.4,27729.4
763,27873.5
762.6,27479.4
762.2,27673.5
761.8,27922.1
761.4,27936.8
761,27314.7
760.6,27610.3
760.2,27679.4
759.8,27152.9
759.4,27960.3
759,27905.9
758.6,27864.7
758.2,27847.1
757.8,27770.6
757.4,28133.8
757,27808.8
756.6,27964.7
756.2,27686.8
755.8,27942.6
755.4,28035.3
755,27804.4
754.6,27941.2
754.2,27891.2
753.8,27651.5
753.4,28027.9
753,27645.6
752.6,28089.7
752.2,27841.2
751.8,28127.9
751.4,27854.4
751,27822.1
750.6,27404.4
750.2,27757.4
749.8,27795.6
749.4,28017.6
749,27445.6
748.6,27625
748.2,27977.9
747.8,27642.6
747.4,27964.7
747,28057.4
746.6,28119.1
746.2,27785.3
745.8,27708.8
745.4,27680.9
745,27673.5
744.6,27801.5
744.2,27988.2
743.8,27566.2
743.4,28333.8
743,27654.4
742.6,27892.6
742.2,27938.2
741.8,27895.6
741.4,28105.9
741,27917.6
740.6,28026.5
740.2,28188.2
739.8,28026.5
739.4,27970.6
739,28139.7
738.6,28014.7
738.2,28552.9
737.8,28572.1
737.4,28177.9
737,28316.2
736.6,28307.4
736.2,28625
735.8,27992.6
735.4,28758.8
735,28169.1
734.6,28125
734.2,28535.3
733.8,28222.1
733.4,28363.2
733,28298.5
732.6,28247.1
732.2,28136.8
731.8,28289.7
731.4,28194.1
731,28194.1
730.6,27700
730.2,28111.8
729.8,28361.8
729.4,27938.2
729,27916.2
728.6,27813.2
728.2,28044.1
727.8,28101.5
727.4,27877.9
727,27969.1
726.6,28069.1
726.2,27992.6
725.8,28348.5
725.4,28432.4
725,28357.4
724.6,28014.7
724.2,27922.1
723.8,28601.5
723.4,28435.3
723,28605.9
722.6,28617.6
722.2,28541.2
721.8,28236.8
721.4,28604.4
721,28794.1
720.6,29025
720.2,28960.3
719.8,29317.6
719.4,29575
719,29389.7
718.6,29488.2
718.2,29864.7
717.8,30005.9
717.4,29694.1
717,29197.1
716.6,29301.5
716.2,29227.9
715.8,29295.6
715.4,29158.8
715,29136.8
714.6,29098.5
714.2,29185.3
713.8,28716.2
713.4,28964.7
713,29095.6
712.6,28972.1
712.2,28767.6
711.8,29085.3
711.4,29145.6
711,29029.4
710.6,28966.2
710.2,28189.7
709.8,28379.4
709.4,28532.4
709,28457.4
708.6,28297.1
708.2,28425
707.8,28258.8
707.4,28058.8
707,27519.1
706.6,27519.1
706.2,27617.6
705.8,27273.5
705.4,26739.7
705,26741.2
704.6,26551.5
704.2,26322.1
703.8,26341.2
703.4,25654.4
703,25795.6
702.6,26023.5
702.2,26042.6
701.8,25864.7
701.4,25457.4
701,25269.1
700.6,25238.2
700.2,24636.8
699.8,24411.8
699.4,24479.4
699,23783.8
698.6,23922.1
698.2,23623.5
697.8,23533.8
697.4,22972.1
697,23060.3
696.6,22497.1
696.2,22658.8
695.8,22280.9
695.4,22279.4
695,22266.2
694.6,21792.6
694.2,21894.1
693.8,21685.3
693.4,21858.8
693,21879.4
692.6,22047.1
692.2,21900
691.8,22742.6
691.4,22973.5
691,24391.2
690.6,26410.3
690.2,31194.1
689.8,39822.1
689.4,54208.8
689,73680.9
688.6,92720.6
688.2,102919
687.8,95141.2
687.4,74582.4
687,53108.8
686.6,37054.4
686.2,28835.3
685.8,25510.3
685.4,23864.7
685,22973.5
684.6,22766.2
684.2,22327.9
683.8,21720.6
683.4,21729.4
683,21075
682.6,21244.1
682.2,20775
681.8,20847.1
681.4,20604.4
681,20639.7
680.6,20344.1
680.2,20297.1
679.8,20473.5
679.4,20767.6
679,20460.3
678.6,20295.6
678.2,20519.1
677.8,19833.8
677.4,20591.2
677,20332.4
676.6,20232.4
676.2,20292.6
675.8,20650
675.4,20460.3
675,20405.9
674.6,20454.4
674.2,20551.5
673.8,20633.8
673.4,20417.6
673,20716.2
672.6,20422.1
672.2,20485.3
671.8,20219.1
671.4,20297.1
671,20425
670.6,20345.6
670.2,20538.2
669.8,20539.7
669.4,20245.6
669,20022.1
668.6,20886.8
668.2,20144.1
667.8,20470.6
667.4,20183.8
667,20492.6
666.6,20439.7
666.2,20247.1
665.8,20367.6
665.4,20302.9
665,20638.2
664.6,20527.9
664.2,20170.6
663.8,20611.8
663.4,20427.9
663,20172.1
662.6,20379.4
662.2,20538.2
661.8,20450
661.4,20263.2
661,20377.9
660.6,20107.4
660.2,20376.5
659.8,20294.1
659.4,20347.1
659,20070.6
658.6,20479.4
658.2,20607.4
657.8,20397.1
657.4,20489.7
657,20450
656.6,20236.8
656.2,19910.3
655.8,20333.8
655.4,20298.5
655,20289.7
654.6,20263.2
654.2,19957.4
653.8,20169.1
653.4,19751.5
653,20295.6
652.6,20263.2
652.2,20598.5
651.8,20482.4
651.4,20788.2
651,21039.7
650.6,20777.9
650.2,21216.2
649.8,21127.9
649.4,21111.8
649,21185.3
648.6,21536.8
648.2,21002.9
647.8,21013.2
647.4,21041.2
647,20625
646.6,20348.5
646.2,20269.1
645.8,20276.5
645.4,19775
645,20036.8
644.6,19885.3
644.2,19960.3
643.8,19983.8
643.4,19769.1
643,20025
642.6,19966.2
642.2,19863.2
641.8,19826.5
641.4,19869.1
641,20198.5
640.6,19651.5
640.2,19948.5
639.8,19963.2
639.4,20075
639,19477.9
638.6,19701.5
638.2,19127.9
637.8,19247.1
637.4,19447.1
637,19311.8
636.6,18950
636.2,18916.2
635.8,18841.2
635.4,18850
635,18672.1
634.6,18739.7
634.2,18695.6
633.8,18644.1
633.4,18811.8
633,18902.9
632.6,18829.4
632.2,18719.1
631.8,18597.1
631.4,18485.3
631,18370.6
630.6,18814.7
630.2,18941.2
629.8,18908.8
629.4,18645.6
629,18727.9
628.6,18926.5
628.2,18880.9
627.8,18858.8
627.4,18480.9
627,18508.8
626.6,18463.2
626.2,18344.1
625.8,18376.5
625.4,18233.8
625,18351.5
624.6,18438.2
624.2,18100
623.8,18191.2
623.4,18119.1
623,18204.4
622.6,18069.1
622.2,18154.4
621.8,18402.9
621.4,18519.1
621,18344.1
620.6,18201.5
620.2,18425
619.8,18119.1
619.4,18252.9
619,18105.9
618.6,18325
618.2,17888.2
617.8,18100
617.4,17997.1
617,18144.1
616.6,18004.4
616.2,17986.8
615.8,17898.5
615.4,18150
615,18083.8
614.6,18197.1
614.2,18151.5
613.8,18329.4
613.4,18204.4
613,17972.1
612.6,17820.6
612.2,18036.8
611.8,18188.2
611.4,18110.3
611,18208.8
610.6,18060.3
610.2,17805.9
609.8,18280.9
609.4,18272.1
609,17991.2
608.6,18044.1
608.2,17938.2
607.8,18117.6
607.4,18160.3
607,18329.4
606.6,18179.4
606.2,18204.4
605.8,17735.3
605.4,18069.1
605,17919.1
604.6,18170.6
604.2,18341.2
603.8,18029.4
603.4,18098.5
603,17898.5
602.6,18270.6
602.2,18242.6
601.8,18377.9
601.4,18205.9
601,18560.3
600.6,18083.8
600.2,18080.9
599.8,18463.2
599.4,18392.6
599,18163.2
598.6,18448.5
598.2,18125
597.8,18008.8
597.4,18158.8
597,18219.1
596.6,18457.4
596.2,18485.3
595.8,18419.1
595.4,18577.9
595,18201.5
594.6,18486.8
594.2,18267.6
593.8,18505.9
593.4,18683.8
593,18401.5
592.6,18511.8
592.2,18404.4
591.8,18023.5
591.4,18329.4
591,18108.8
590.6,18361.8
590.2,18486.8
589.8,18376.5
589.4,18052.9
589,18291.2
588.6,18039.7
588.2,18426.5
587.8,18111.8
587.4,18605.9
587,18138.2
586.6,18564.7
586.2,18060.3
585.8,18129.4
585.4,18364.7
585,17825
584.6,17739.7
584.2,18285.3
583.8,18205.9
583.4,18114.7
583,17925
582.6,17842.6
582.2,17752.9
581.8,18117.6
581.4,17807.4
581,17794.1
580.6,17789.7
580.2,17905.9
579.8,17817.6
579.4,18069.1
579,17885.3
578.6,17889.7
578.2,18002.9
577.8,18336.8
577.4,18008.8
577,17907.4
576.6,18254.4
576.2,18223.5
575.8,18213.2
575.4,18377.9
575,18377.9
574.6,18835.3
574.2,18920.6
573.8,18720.6
573.4,19079.4
573,19036.8
572.6,19020.6
572.2,19032.4
571.8,19066.2
571.4,19298.5
571,19755.9
570.6,19723.5
570.2,20208.8
569.8,20683.8
569.4,20926.5
569,21489.7
568.6,21247.1
568.2,20307.4
567.8,19725
567.4,19208.8
567,18750
566.6,18292.6
566.2,17592.6
565.8,17413.2
565.4,16932.4
565,16308.8
564.6,16538.2
564.2,16455.9
563.8,16061.8
563.4,16180.9
563,15800
562.6,15708.8
562.2,15455.9
561.8,15577.9
561.4,15408.8
561,15542.6
560.6,15548.5
560.2,15394.1
559.8,15635.3
559.4,15758.8
559,15380.9
558.6,15591.2
558.2,15964.7
557.8,15888.2
557.4,15622.1
557,15813.2
556.6,15955.9
556.2,16333.8
555.8,16520.6
555.4,16069.1
555,16291.2
554.6,16269.1
554.2,16558.8
553.8,16501.5
553.4,16135.3
553,16432.4
552.6,16413.2
552.2,16358.8
551.8,16316.2
551.4,16507.4
551,16691.2
550.6,16452.9
550.2,16357.4
549.8,16214.7
549.4,16322.1
549,15998.5
548.6,15941.2
548.2,15226.5
547.8,15261.8
547.4,14441.2
547,14191.2
546.6,14000
546.2,13654.4
545.8,13450
545.4,13308.8
545,13064.7
544.6,12586.8
544.2,12472.1
543.8,12139.7
543.4,12148.5
543,11832.4
542.6,11476.5
542.2,11297.1
541.8,10982.4
541.4,10682.4
541,10664.7
540.6,10691.2
540.2,10486.8
539.8,10170.6
539.4,9688.24
539,9707.35
538.6,9664.71
538.2,9269.12
537.8,9400
537.4,9291.18
537,9211.76
536.6,9485.29
536.2,9705.88
535.8,9719.12
535.4,9955.88
535,10307.4
534.6,11075
534.2,12076.5
533.8,14483.8
533.4,19133.8
533,28560.3
532.6,42910.3
532.2,56094.1
531.8,59032.4
531.4,49670.6
531,37339.7
530.6,28804.4
530.2,24104.4
529.8,20647.1
529.4,17394.1
529,14635.3
528.6,12050
528.2,10691.2
527.8,9604.41
527.4,9258.82
527,9201.47
526.6,8775
526.2,9051.47
525.8,8904.41
525.4,8629.41
525,8833.82
524.6,8591.18
524.2,8626.47
523.8,8461.76
523.4,8669.12
523,8258.82
522.6,8516.18
522.2,8379.41
521.8,8501.47
521.4,8401.47
521,8636.76
520.6,8373.53
520.2,8469.12
519.8,8492.65
519.4,8430.88
519,8504.41
518.6,8464.71
518.2,8467.65
517.8,8398.53
517.4,8398.53
517,8398.53
516.6,8427.94
516.2,8338.24
515.8,8373.53
515.4,8402.94
515,8514.71
514.6,8361.76
514.2,8473.53
513.8,8344.12
513.4,8417.65
513,8725
512.6,8588.24
512.2,8373.53
511.8,8419.12
511.4,8597.06
511,8738.24
510.6,8316.18
510.2,8727.94
509.8,8548.53
509.4,8464.71
509,8367.65
508.6,8566.18
508.2,8495.59
507.8,8552.94
507.4,8576.47
507,8595.59
506.6,8210.29
506.2,8404.41
505.8,8520.59
505.4,8410.29
505,8529.41
504.6,8317.65
504.2,8688.24
503.8,8647.06
503.4,8595.59
503,8627.94
502.6,8647.06
502.2,8679.41
501.8,8611.76
501.4,8613.24
501,8310.29
500.6,8442.65
500.2,8777.94
499.8,8823.53
499.4,8729.41
499,8697.06
498.6,8632.35
498.2,8666.18
497.8,8632.35
497.4,8566.18
497,8777.94
496.6,8733.82
496.2,8829.41
495.8,8711.76
495.4,8919.12
495,8926.47
494.6,8672.06
494.2,8608.82
493.8,8707.35
493.4,8707.35
493,8738.24
492.6,8755.88
492.2,8667.65
491.8,8900
491.4,8700
491,8757.35
490.6,8760.29
490.2,8938.24
489.8,8907.35
489.4,8707.35
489,8883.82
488.6,8954.41
488.2,8744.12
487.8,8777.94
487.4,8742.65
487,8877.94
486.6,8910.29
486.2,8913.24
485.8,8725
485.4,8785.29
485,8902.94
484.6,8926.47
484.2,8723.53
483.8,8741.18
483.4,8998.53
483,8844.12
482.6,8913.24
482.2,8633.82
481.8,8880.88
481.4,8751.47
481,8967.65
480.6,9007.35
480.2,8891.18
479.8,8983.82
479.4,8851.47
479,8882.35
478.6,9026.47
478.2,8801.47
477.8,9022.06
477.4,9222.06
477,8777.94
476.6,9075
476.2,9063.24
475.8,9101.47
475.4,9027.94
475,8969.12
474.6,9107.35
474.2,8883.82
473.8,8950
473.4,9082.35
473,9126.47
472.6,8955.88
472.2,8863.24
471.8,9167.65
471.4,9022.06
471,9283.82
470.6,9077.94
470.2,9283.82
469.8,8867.65
469.4,9258.82
469,9007.35
468.6,9154.41
468.2,8947.06
467.8,9195.59
467.4,9022.06
467,9136.76
466.6,8948.53
466.2,8957.35
465.8,8948.53
465.4,9142.65
465,9145.59
464.6,9058.82
464.2,9063.24
463.8,9089.71
463.4,9269.12
463,9257.35
462.6,9335.29
462.2,9147.06
461.8,9344.12
461.4,9364.71
461,8961.76
460.6,9383.82
460.2,9252.94
459.8,9030.88
459.4,9330.88
459,9226.47
458.6,9198.53
458.2,9200
457.8,9489.71
457.4,9448.53
457,9455.88
456.6,9508.82
456.2,9516.18
455.8,9464.71
455.4,9154.41
455,9191.18
454.6,9394.12
454.2,9210.29
453.8,9398.53
453.4,9495.59
453,9411.76
452.6,9498.53
452.2,9348.53
451.8,9576.47
451.4,9545.59
451,9441.18
450.6,9639.71
450.2,9170.59
449.8,9410.29
449.4,9494.12
449,9436.76
448.6,9504.41
448.2,9333.82
447.8,9438.24
447.4,9377.94
447,9500
446.6,9335.29
446.2,9473.53
445.8,9507.35
445.4,9517.65
445,9725
444.6,9555.88
444.2,9411.76
443.8,9423.53
443.4,9626.47
443,9592.65
442.6,9726.47
442.2,9619.12
441.8,9477.94
441.4,9654.41
441,9547.06
440.6,9729.41
440.2,9825
439.8,9677.94
439.4,9694.12
439,9722.06
438.6,9702.94
438.2,9770.59
437.8,9751.47
437.4,9573.53
437,9777.94
436.6,9925
436.2,9769.12
435.8,9623.53
435.4,9680.88
435,9757.35
434.6,9785.29
434.2,9663.24
433.8,9785.29
433.4,9772.06
433,9669.12
432.6,9875
432.2,9702.94
431.8,9767.65
431.4,9680.88
431,9623.53
430.6,9804.41
430.2,9850
429.8,9819.12
429.4,9952.94
429,10004.4
428.6,9744.12
428.2,9963.24
427.8,10041.2
427.4,9720.59
427,9861.76
426.6,9819.12
426.2,10126.5
425.8,10066.2
425.4,9963.24
425,9883.82
424.6,9873.53
424.2,10086.8
423.8,9935.29
423.4,9879.41
423,9880.88
422.6,10329.4
422.2,10233.8
421.8,10088.2
421.4,10282.4
421,10033.8
420.6,10088.2
420.2,10066.2
419.8,9907.35
419.4,9775
419,10126.5
418.6,9989.71
418.2,10113.2
417.8,9866.18
417.4,10186.8
417,9930.88
416.6,9805.88
416.2,9957.35
415.8,9979.41
415.4,10026.5
415,9916.18
414.6,9908.82
414.2,9919.12
413.8,9777.94
413.4,9729.41
413,9672.06
412.6,9611.76
412.2,9410.29
411.8,9233.82
411.4,9472.06
411,9363.24
410.6,9466.18
410.2,9333.82
409.8,9358.82
409.4,9263.24
409,9180.88
408.6,9414.71
408.2,9201.47
407.8,9179.41
407.4,8964.71
407,9114.71
406.6,9069.12
406.2,8947.06
405.8,9067.65
405.4,9214.71
405,9229.41
404.6,9416.18
404.2,9551.47
403.8,9914.71
403.4,10773.5
403,12297.1
402.6,14791.2
402.2,17066.2
401.8,17330.9
401.4,15054.4
401,12350
400.6,10995.6
400.2,11289.7
399.8,12480.9
399.4,15041.2
399,17216.2
398.6,17479.4
398.2,15002.9
397.8,11907.4
397.4,10344.1
397,9633.82
396.6,9457.35
396.2,9511.76
395.8,9457.35
395.4,9258.82
395,9351.47
394.6,9117.65
394.2,9308.82
393.8,9329.41
393.4,9027.94
393,9098.53
392.6,9132.35
392.2,9155.88
391.8,9255.88
391.4,9163.24
391,8950
390.6,9050
390.2,9248.53
389.8,9280.88
389.4,9176.47
389,9157.35
388.6,9336.76
388.2,9300
387.8,9229.41
387.4,9480.88
387,9130.88
386.6,9225
386.2,9267.65
385.8,9247.06
385.4,9254.41
385,9188.24
384.6,9466.18
384.2,9139.71
383.8,9276.47
383.4,9470.59
383,9401.47
382.6,9591.18
382.2,9350
381.8,9622.06
381.4,9545.59
381,9298.53
380.6,9433.82
380.2,9404.41
379.8,9627.94
379.4,9710.29
379,9632.35
378.6,9600
378.2,9494.12
377.8,9601.47
377.4,9401.47
377,9513.24
376.6,9394.12
376.2,9607.35
375.8,9558.82
375.4,9673.53
375,9420.59
374.6,9885.29
374.2,9597.06
373.8,9825
373.4,9626.47
373,9648.53
372.6,9920.59
372.2,9572.06
371.8,9522.06
371.4,9791.18
371,9776.47
370.6,9720.59
370.2,9836.76
369.8,9697.06
369.4,9669.12
369,9769.12
368.6,9754.41
368.2,9564.71
367.8,9907.35
367.4,9932.35
367,9895.59
366.6,9897.06
366.2,9773.53
365.8,9869.12
365.4,9816.18
365,9666.18
364.6,9902.94
364.2,9950
363.8,9847.06
363.4,9730.88
363,9725
362.6,9835.29
362.2,9870.59
361.8,10025
361.4,10207.4
361,10117.6
360.6,9951.47
360.2,9916.18
359.8,9861.76
359.4,10050
359,9819.12
358.6,9925
358.2,9926.47
357.8,10289.7
357.4,9889.71
357,10122.1
356.6,10160.3
356.2,9941.18
355.8,9857.35
355.4,9989.71
355,10302.9
354.6,9983.82
354.2,10214.7
353.8,10161.8
353.4,10280.9
353,10069.1
352.6,10141.2
352.2,10473.5
351.8,10225
351.4,10392.6
351,10267.6
350.6,10569.1
350.2,10345.6
349.8,10438.2
349.4,10422.1
349,10423.5
348.6,10501.5
348.2,10336.8
347.8,10423.5
347.4,10708.8
347,10786.8
346.6,10423.5
346.2,10623.5
345.8,10686.8
345.4,10444.1
345,10330.9
344.6,10500
344.2,10570.6
343.8,10382.4
343.4,10572.1
343,10526.5
342.6,10735.3
342.2,10605.9
341.8,10511.8
341.4,10598.5
341,10489.7
340.6,10754.4
340.2,10620.6
339.8,10630.9
339.4,10347.1
339,10667.6
338.6,10630.9
338.2,10560.3
337.8,10808.8
337.4,10811.8
337,10792.6
336.6,10833.8
336.2,10689.7
335.8,10770.6
335.4,10723.5
335,10592.6
334.6,10900
334.2,10586.8
333.8,10864.7
333.4,10875
333,10797.1
332.6,10661.8
332.2,10863.2
331.8,10754.4
331.4,10954.4
331,10758.8
330.6,10911.8
330.2,10819.1
329.8,10963.2
329.4,10851.5
329,11094.1
328.6,10967.6
328.2,10876.5
327.8,10994.1
327.4,11057.4
327,11063.2
326.6,11054.4
326.2,11082.4
325.8,11533.8
325.4,10795.6
325,11367.6
324.6,11132.4
324.2,10986.8
323.8,11163.2
323.4,11147.1
323,11000
322.6,11007.4
322.2,11425
321.8,11272.1
321.4,11530.9
321,11382.4
320.6,11398.5
320.2,11438.2
319.8,11330.9
319.4,11294.1
319,11475
318.6,11451.5
318.2,11622.1
317.8,11307.4
317.4,11772.1
317,11610.3
316.6,11967.6
316.2,11776.5
315.8,11501.5
315.4,11823.5
315,11820.6
314.6,11550
314.2,11817.6
313.8,11689.7
313.4,11767.6
313,11686.8
312.6,11814.7
312.2,11889.7
311.8,11880.9
311.4,12008.8
311,11873.5
310.6,11900
310.2,12017.6
309.8,12047.1
309.4,11935.3
309,11926.5
308.6,11898.5
308.2,12223.5
307.8,11982.4
307.4,11833.8
307,12058.8
306.6,11863.2
306.2,11673.5
305.8,12010.3
305.4,12202.9
305,11822.1
304.6,12147.1
304.2,11901.5
303.8,11983.8
303.4,11729.4
303,11963.2
302.6,11686.8
302.2,11320.6
301.8,11223.5
301.4,11100
301,10964.7
300.6,10670.6
300.2,10310.3
299.8,10269.1
299.4,9926.47
299,9733.82
298.6,9522.06
298.2,9250
297.8,8977.94
297.4,8886.76
297,8769.12
296.6,8483.82
296.2,8502.94
295.8,8316.18
295.4,8285.29
295,7958.82
294.6,8116.18
294.2,8038.24
293.8,8716.18
293.4,10358.8
293,12948.5
292.6,16057.4
292.2,16720.6
291.8,14663.2
291.4,10661.8
291,8161.76
290.6,7389.71
290.2,7194.12
289.8,7372.06
289.4,7569.12
289,7957.35
288.6,8980.88
288.2,9648.53
287.8,11113.2
287.4,13920.6
287,19432.4
286.6,27307.4
286.2,35177.9
285.8,40129.4
285.4,42585.3
285,44700
284.6,45033.8
284.2,39364.7
283.8,30508.8
283.4,20450
283,13223.5
282.6,9676.47
282.2,7910.29
281.8,7492.65
281.4,7239.71
281,7073.53
280.6,6876.47
280.2,6755.88
279.8,6527.94
279.4,6532.35
279,6386.76
278.6,6361.76
278.2,6417.65
277.8,6245.59
277.4,6192.65
277,6210.29
276.6,6085.29
276.2,6070.59
275.8,6266.18
275.4,6298.53
275,6023.53
274.6,6038.24
274.2,6205.88
273.8,6319.12
273.4,6169.12
273,6089.71
272.6,6248.53
272.2,6166.18
271.8,6145.59
271.4,6133.82
271,6000
270.6,6247.06
270.2,6144.12
269.8,6345.59
269.4,6323.53
269,6352.94
268.6,6419.12
268.2,6401.47
267.8,6289.71
267.4,6270.59
267,6285.29
266.6,6266.18
266.2,6404.41
265.8,5976.47
265.4,6186.76
265,6170.59
264.6,6255.88
264.2,6188.24
263.8,6147.06
263.4,6429.41
263,6326.47
262.6,6204.41
262.2,6238.24
261.8,6277.94
261.4,6382.35
261,6217.65
260.6,6291.18
260.2,6504.41
259.8,6335.29
259.4,6289.71
259,6402.94
258.6,6336.76
258.2,6542.65
257.8,6329.41
257.4,6417.65
257,6617.65
256.6,6523.53
256.2,6632.35
255.8,6685.29
255.4,6598.53
255,6638.24
254.6,6479.41
254.2,6316.18
253.8,6386.76
253.4,6430.88
253,6448.53
252.6,6545.59
252.2,6547.06
251.8,6580.88
251.4,6555.88
251,6395.59
250.6,6404.41
250.2,6230.88
249.8,6335.29
249.4,6439.71
249,6416.18
248.6,6254.41
248.2,6389.71
247.8,6211.76
247.4,6404.41
247,6170.59
246.6,6210.29
246.2,6183.82
245.8,6350
245.4,6245.59
245,6111.76
244.6,6152.94
244.2,6127.94
243.8,6027.94
243.4,6166.18
243,6189.71
242.6,5944.12
242.2,5811.76
241.8,5880.88
241.4,5723.53
241,5841.18
240.6,5723.53
240.2,5720.59
239.8,5822.06
239.4,5770.59
239,5916.18
238.6,5775
238.2,5845.59
237.8,5829.41
237.4,5889.71
237,5967.65
236.6,6226.47
236.2,6341.18
235.8,6435.29
235.4,6923.53
235,7229.41
234.6,7714.71
234.2,8714.71
233.8,9952.94
233.4,11600
233,12654.4
232.6,13666.2
232.2,13132.4
231.8,11980.9
231.4,10529.4
231,9354.41
230.6,8322.06
230.2,7369.12
229.8,6786.76
229.4,6892.65
229,6472.06
228.6,6189.71
228.2,6064.71
227.8,6032.35
227.4,5897.06
227,6066.18
226.6,5891.18
226.2,5798.53
225.8,5816.18
225.4,5770.59
225,5591.18
224.6,5722.06
224.2,5597.06
223.8,5788.24
223.4,5758.82
223,5641.18
222.6,5558.82
222.2,5661.76
221.8,5664.71
221.4,5654.41
221,5710.29
220.6,5572.06
220.2,5780.88
219.8,5730.88
219.4,5672.06
219,5583.82
218.6,5655.88
218.2,5625
217.8,5566.18
217.4,5576.47
217,5711.76
216.6,5642.65
216.2,5572.06
215.8,5597.06
215.4,5676.47
215,5635.29
214.6,5567.65
214.2,5585.29
213.8,5488.24
213.4,5604.41
213,5608.82
212.6,5522.06
212.2,5719.12
211.8,5744.12
211.4,5733.82
211,5567.65
210.6,5654.41
210.2,5476.47
209.8,5595.59
209.4,5430.88
209,5707.35
208.6,5647.06
208.2,5588.24
207.8,5798.53
207.4,5610.29
207,5561.76
206.6,5714.71
206.2,5492.65
205.8,5608.82
205.4,5629.41
205,5702.94
204.6,5542.65
204.2,5732.35
203.8,5567.65
203.4,5704.41
203,5577.94
202.6,5305.88
202.2,5566.18
201.8,5636.76
201.4,5673.53
201,5547.06
200.6,5610.29
200.2,5563.24
199.8,5652.94
199.4,5541.18
199,5747.06
198.6,5716.18
198.2,5808.82
197.8,5711.76
197.4,5717.65
197,5758.82
196.6,5755.88
196.2,5738.24
195.8,5757.35
195.4,5770.59
195,5848.53
194.6,5776.47
194.2,5908.82
193.8,5866.18
193.4,5751.47
193,5827.94
192.6,5986.76
192.2,5939.71
191.8,5879.41
191.4,5814.71
191,5967.65
190.6,5995.59
190.2,6007.35
189.8,5904.41
189.4,5892.65
189,6038.24
188.6,5923.53
188.2,5910.29
187.8,5814.71
187.4,5883.82
187,5710.29
186.6,5867.65
186.2,6023.53
185.8,5613.24
185.4,5583.82
185,5597.06
184.6,5619.12
184.2,5311.76
183.8,5435.29
183.4,5567.65
183,5539.71
182.6,5408.82
182.2,5373.53
181.8,5279.41
181.4,5282.35
181,5207.35
180.6,5130.88
180.2,5183.82
179.8,5047.06
179.4,5064.71
179,4816.18
178.6,4897.06
178.2,4954.41
177.8,4776.47
177.4,4952.94
177,4769.12
176.6,4597.06
176.2,4682.35
175.8,4489.71
175.4,4533.82
175,4569.12
174.6,4466.18
174.2,4347.06
173.8,4433.82
173.4,4607.35
173,4582.35
172.6,4692.65
172.2,4788.24
171.8,4932.35
171.4,5260.29
171,6026.47
170.6,7413.24
170.2,10204.4
169.8,13432.4
169.4,16245.6
169,18625
168.6,20067.6
168.2,19397.1
167.8,15125
167.4,9607.35
167,6642.65
166.6,5413.24
166.2,5002.94
165.8,4919.12
165.4,4825
165,4707.35
164.6,4607.35
164.2,4638.24
163.8,4576.47
163.4,4514.71
163,4545.59
162.6,4538.24
162.2,4445.59
161.8,4425
161.4,4223.53
161,4267.65
160.6,4398.53
160.2,4347.06
159.8,4286.76
159.4,4329.41
159,4345.59
158.6,4254.41
158.2,4327.94
157.8,4316.18
157.4,4223.53
157,4280.88
156.6,4300
156.2,4322.06
155.8,4380.88
155.4,4397.06
155,4350
154.6,4388.24
154.2,4507.35
153.8,4276.47
153.4,4452.94
153,4391.18
152.6,4316.18
152.2,4558.82
151.8,4560.29
151.4,4689.71
151,4516.18
150.6,4382.35
150.2,4420.59
149.8,4373.53
149.4,4501.47
149,4511.76
148.6,4361.76
148.2,4358.82
147.8,4392.65
147.4,4558.82
147,4392.65
146.6,4458.82
146.2,4297.06
145.8,4294.12
145.4,4326.47
145,4497.06
144.6,4525
144.2,4385.29
143.8,4351.47
143.4,4397.06
143,4469.12
142.6,4426.47
142.2,4380.88
141.8,4283.82
141.4,4386.76
141,4363.24
140.6,4272.06
140.2,4414.71
139.8,4422.06
139.4,4476.47
139,4417.65
138.6,4495.59
138.2,4350
137.8,4350
137.4,4382.35
137,4345.59
136.6,4277.94
136.2,4336.76
135.8,4183.82
135.4,4295.59
135,4257.35
134.6,4238.24
134.2,4379.41
133.8,4389.71
133.4,4233.82
133,4472.06
132.6,4354.41
132.2,4339.71
131.8,4336.76
131.4,4420.59
131,4400
130.6,4254.41
130.2,4386.76
129.8,4413.24
129.4,4372.06
129,4186.76
128.6,4320.59
128.2,4294.12
127.8,4348.53
127.4,4408.82
127,4463.24
126.6,4280.88
126.2,4432.35
125.8,4466.18
125.4,4676.47
125,4733.82
124.6,4698.53
124.2,4670.59
123.8,5060.29
123.4,4877.94
123,5067.65
122.6,5148.53
122.2,5180.88
121.8,5367.65
121.4,5420.59
121,5230.88
120.6,4967.65
120.2,4755.88
119.8,4400
119.4,4252.94
119,4220.59
118.6,4101.47
118.2,4120.59
117.8,4036.76
117.4,3916.18
117,4017.65
116.6,3830.88
116.2,4042.65
115.8,4007.35
115.4,3852.94
115,3941.18
114.6,3939.71
114.2,3925
113.8,3885.29
113.4,4101.47
113,3789.71
112.6,3786.76
112.2,3788.24
111.8,3823.53
111.4,3711.76
111,3858.82
110.6,3707.35
110.2,3798.53
109.8,3885.29
109.4,3950
109,3807.35
108.6,3848.53
108.2,3814.71
107.8,3875
107.4,3761.76
107,3898.53
106.6,3814.71
106.2,3785.29
105.8,3745.59
105.4,3792.65
105,3838.24
104.6,3860.29
104.2,3817.65
103.8,3864.71
103.4,3952.94
103,3945.59
102.6,3863.24
102.2,4036.76
101.8,4108.82
101.4,4038.24
101,4098.53
100.6,4033.82
100.2,4057.35
99.8,4045.59
99.4,3973.53
99,3742.65
98.6,3873.53
98.2,3913.24
97.8,3861.76
97.4,3833.82
97,3866.18
96.6,3882.35
96.2,3823.53
95.8,3908.82
95.4,3752.94
95,3810.29
94.6,3857.35
94.2,3760.29
93.8,3826.47
93.4,3847.06
93,3841.18
92.6,3850
92.2,3763.24
91.8,3820.59
91.4,3745.59
91,3745.59
90.6,3722.06
90.2,3513.24
89.8,3450
89.4,3483.82
89,3510.29
88.6,3295.59
88.2,3283.82
87.8,3505.88
87.4,3355.88
87,3473.53
86.6,3429.41
86.2,3507.35
85.8,3476.47
85.4,3411.76
85,3480.88
84.6,3314.71
84.2,3380.88
83.8,3525
83.4,3455.88
83,3463.24
82.6,3369.12
82.2,3379.41
81.8,3341.18
81.4,3497.06
81,3610.29
80.6,3592.65
80.2,3760.29
79.8,3811.76
79.4,4175
79,4180.88
78.6,4539.71
78.2,4652.94
77.8,4963.24
77.4,5210.29
77,5525
76.6,5807.35
76.2,5710.29
75.8,5786.76
75.4,5639.71
75,5536.76
74.6,5619.12
74.2,5739.71
73.8,5336.76
73.4,4738.24
73,4189.71
72.6,3575
72.2,3198.53
71.8,3095.59
71.4,2845.59
71,2820.59
70.6,2645.59
70.2,2408.82
69.8,2505.88
69.4,2427.94
69,2391.18
68.6,2427.94
68.2,2398.53
67.8,2282.35
67.4,2301.47
67,2313.24
66.6,2319.12
66.2,2364.71
65.8,2155.88
65.4,2335.29
65,2277.94
64.6,2275
64.2,2235.29
63.8,2195.59
63.4,2276.47
63,2326.47
62.6,2336.76
62.2,2448.53
61.8,2373.53
61.4,2300
61,2294.12
60.6,2338.24
60.2,2275
59.8,2326.47
59.4,2366.18
59,2292.65
58.6,2267.65
58.2,2219.12
57.8,2242.65
57.4,2323.53
57,2407.35
56.6,2425
56.2,2388.24
55.8,2272.06
55.4,2392.65
55,2291.18
54.6,2341.18
54.2,2295.59
53.8,2264.71
53.4,2342.65
53,2244.12
52.6,2263.24
52.2,2295.59
51.8,2300
51.4,2288.24
51,2291.18
50.6,2355.88
50.2,2233.82
49.8,2200
49.4,2167.65
49,2244.12
48.6,2167.65
48.2,2191.18
47.8,2247.06
47.4,2120.59
47,2107.35
46.6,2133.82
46.2,2117.65
45.8,2164.71
45.4,2033.82
45,2095.59
44.6,2129.41
44.2,2135.29
43.8,2073.53
43.4,2089.71
43,2086.76
42.6,2066.18
42.2,2079.41
41.8,2116.18
41.4,1967.65
41,2061.76
40.6,2160.29
40.2,2075
39.8,2138.24
39.4,2088.24
39,2327.94
38.6,2354.41
38.2,2432.35
37.8,2388.24
37.4,2647.06
37,2822.06
36.6,3020.59
36.2,3255.88
35.8,3327.94
35.4,3480.88
35,3664.71
34.6,3682.35
34.2,3839.71
33.8,3916.18
33.4,4077.94
33,4052.94
32.6,3795.59
32.2,3727.94
31.8,3379.41
31.4,3142.65
31,2797.06
30.6,2661.76
30.2,2408.82
29.8,2372.06
29.4,2300
29,2307.35
28.6,2332.35
28.2,2310.29
27.8,2364.71
27.4,2327.94
27,2283.82
26.6,2398.53
26.2,2323.53
25.8,2245.59
25.4,2355.88
25,2250
24.6,2276.47
24.2,2154.41
23.8,2048.53
23.4,2108.82
23,1847.06
22.6,1825
22.2,1780.88
21.8,1682.35
21.4,1561.76
21,1558.82
20.6,1523.53
20.2,1610.29
19.8,1779.41
19.4,1911.76
19,2047.06
18.6,2329.41
18.2,2313.24
17.8,2172.06
17.4,2094.12
17,1908.82
16.6,1952.94
16.2,1835.29
15.8,1941.18
15.4,1933.82
15,2229.41
14.6,2308.82
14.2,2141.18
13.8,1891.18
13.4,1630.88
13,1585.29
12.6,1635.29
12.2,1917.65
11.8,2150
11.4,2316.18
11,2432.35
10.6,2489.71
10.2,2469.12
9.8,2544.12
9.4,2204.41
9,1801.47
8.6,1447.06
8.2,1192.65
7.8,1072.06
7.4,1083.82
7,1195.59
6.6,1189.71
6.2,1338.24
5.8,1404.41
5.4,1369.12
5,1350
4.6,1357.35
4.2,1379.41
3.8,1294.12
3.4,1502.94
3,1733.82
2.6,2048.53
2.2,2197.06
1.8,1879.41
1.4,1341.18
1,891.176
0.6,663.235
0.2,539.706
-0.2,407.353
-0.6,280.882
-1,226.471
-1.4,205.882
