,
,
Characteristic Energy eV,1486.6
BE_Sur1 1,CPS_Sur1 1
1399,140106
1398.6,139147
1398.2,138447
1397.8,139326
1397.4,138124
1397,135165
1396.6,135700
1396.2,136588
1395.8,135359
1395.4,134594
1395,134694
1394.6,132506
1394.2,132779
1393.8,132915
1393.4,130218
1393,131232
1392.6,130350
1392.2,130438
1391.8,130900
1391.4,128926
1391,128103
1390.6,127944
1390.2,128550
1389.8,127782
1389.4,126935
1389,126194
1388.6,126147
1388.2,125371
1387.8,125450
1387.4,124879
1387,124229
1386.6,124435
1386.2,122688
1385.8,123153
1385.4,121868
1385,122682
1384.6,122018
1384.2,120985
1383.8,120397
1383.4,120485
1383,120406
1382.6,118894
1382.2,119362
1381.8,118826
1381.4,118391
1381,118579
1380.6,116585
1380.2,116503
1379.8,116047
1379.4,115965
1379,116515
1378.6,115700
1378.2,114818
1377.8,116012
1377.4,113941
1377,114371
1376.6,114526
1376.2,113191
1375.8,112459
1375.4,113024
1375,112950
1374.6,112735
1374.2,112053
1373.8,111759
1373.4,111397
1373,110638
1372.6,110312
1372.2,110497
1371.8,110044
1371.4,109676
1371,109232
1370.6,109253
1370.2,108482
1369.8,108474
1369.4,109044
1369,107159
1368.6,107021
1368.2,107774
1367.8,107447
1367.4,106735
1367,107182
1366.6,106412
1366.2,106082
1365.8,105450
1365.4,106097
1365,105471
1364.6,105279
1364.2,105209
1363.8,105056
1363.4,104909
1363,104488
1362.6,104315
1362.2,103009
1361.8,104518
1361.4,102679
1361,103091
1360.6,102850
1360.2,102256
1359.8,101976
1359.4,103000
1359,102803
1358.6,102253
1358.2,101094
1357.8,101932
1357.4,101456
1357,101741
1356.6,101332
1356.2,100521
1355.8,101635
1355.4,99867.6
1355,100094
1354.6,99394.1
1354.2,99502.9
1353.8,99126.5
1353.4,100091
1353,99470.6
1352.6,99767.6
1352.2,99258.8
1351.8,98541.2
1351.4,98985.3
1351,97811.8
1350.6,98764.7
1350.2,97461.8
1349.8,97776.5
1349.4,98541.2
1349,96938.2
1348.6,97811.8
1348.2,97294.1
1347.8,97344.1
1347.4,96561.8
1347,97508.8
1346.6,96285.3
1346.2,96644.1
1345.8,97332.4
1345.4,97470.6
1345,96697.1
1344.6,96041.2
1344.2,96308.8
1343.8,97076.5
1343.4,98126.5
1343,98197.1
1342.6,98461.8
1342.2,98552.9
1341.8,98791.2
1341.4,99902.9
1341,98208.8
1340.6,98311.8
1340.2,96808.8
1339.8,97135.3
1339.4,96558.8
1339,95520.6
1338.6,93664.7
1338.2,94311.8
1337.8,94264.7
1337.4,93438.2
1337,93273.5
1336.6,93076.5
1336.2,93617.6
1335.8,92082.4
1335.4,92094.1
1335,92205.9
1334.6,90573.5
1334.2,90994.1
1333.8,89991.2
1333.4,89273.5
1333,89614.7
1332.6,88905.9
1332.2,88214.7
1331.8,87444.1
1331.4,86564.7
1331,86485.3
1330.6,86373.5
1330.2,84938.2
1329.8,84079.4
1329.4,84035.3
1329,82738.2
1328.6,83847.1
1328.2,82585.3
1327.8,82505.9
1327.4,81914.7
1327,81417.6
1326.6,82438.2
1326.2,81782.4
1325.8,81720.6
1325.4,82364.7
1325,83041.2
1324.6,81988.2
1324.2,82832.4
1323.8,82350
1323.4,82364.7
1323,83864.7
1322.6,81805.9
1322.2,81414.7
1321.8,80105.9
1321.4,79358.8
1321,78732.4
1320.6,78585.3
1320.2,78364.7
1319.8,76514.7
1319.4,77329.4
1319,75470.6
1318.6,76250
1318.2,75073.5
1317.8,73611.8
1317.4,73202.9
1317,72111.8
1316.6,72700
1316.2,71926.5
1315.8,71582.4
1315.4,70382.4
1315,69750
1314.6,69650
1314.2,68667.6
1313.8,68150
1313.4,68641.2
1313,67711.8
1312.6,67255.9
1312.2,66600
1311.8,66944.1
1311.4,67370.6
1311,66570.6
1310.6,66091.2
1310.2,66864.7
1309.8,66620.6
1309.4,65255.9
1309,65864.7
1308.6,65700
1308.2,65967.6
1307.8,64658.8
1307.4,65582.4
1307,64944.1
1306.6,64176.5
1306.2,64617.6
1305.8,64326.5
1305.4,64055.9
1305,64594.1
1304.6,64785.3
1304.2,64470.6
1303.8,64147.1
1303.4,63738.2
1303,64400
1302.6,63408.8
1302.2,63685.3
1301.8,63591.2
1301.4,63735.3
1301,62911.8
1300.6,61750
1300.2,62350
1299.8,62208.8
1299.4,62097.1
1299,62232.4
1298.6,61555.9
1298.2,61144.1
1297.8,61076.5
1297.4,60641.2
1297,61261.8
1296.6,60950
1296.2,60000
1295.8,59400
1295.4,59482.4
1295,58670.6
1294.6,59635.3
1294.2,58417.6
1293.8,59164.7
1293.4,58520.6
1293,57929.4
1292.6,57255.9
1292.2,57767.6
1291.8,57750
1291.4,57105.9
1291,57297.1
1290.6,57235.3
1290.2,56944.1
1289.8,57617.6
1289.4,56997.1
1289,57197.1
1288.6,56311.8
1288.2,56535.3
1287.8,56808.8
1287.4,56994.1
1287,56817.6
1286.6,57029.4
1286.2,56708.8
1285.8,56458.8
1285.4,56285.3
1285,56635.3
1284.6,55197.1
1284.2,55700
1283.8,55758.8
1283.4,55070.6
1283,54905.9
1282.6,55238.2
1282.2,54182.4
1281.8,54452.9
1281.4,54488.2
1281,54638.2
1280.6,53697.1
1280.2,53817.6
1279.8,53264.7
1279.4,53326.5
1279,52879.4
1278.6,52923.5
1278.2,52238.2
1277.8,53070.6
1277.4,52158.8
1277,52467.6
1276.6,52529.4
1276.2,51855.9
1275.8,52214.7
1275.4,51602.9
1275,51358.8
1274.6,50823.5
1274.2,51235.3
1273.8,50808.8
1273.4,50529.4
1273,50764.7
1272.6,49923.5
1272.2,50408.8
1271.8,49667.6
1271.4,50664.7
1271,50200
1270.6,50494.1
1270.2,49882.4
1269.8,50229.4
1269.4,49091.2
1269,50150
1268.6,49850
1268.2,50108.8
1267.8,49747.1
1267.4,49450
1267,49811.8
1266.6,49814.7
1266.2,50029.4
1265.8,49417.6
1265.4,49573.5
1265,48935.3
1264.6,49552.9
1264.2,49691.2
1263.8,49052.9
1263.4,49611.8
1263,48838.2
1262.6,48976.5
1262.2,48664.7
1261.8,49623.5
1261.4,49088.2
1261,48782.4
1260.6,49226.5
1260.2,49029.4
1259.8,49505.9
1259.4,49579.4
1259,49005.9
1258.6,49105.9
1258.2,49358.8
1257.8,49491.2
1257.4,49417.6
1257,49064.7
1256.6,48873.5
1256.2,49182.4
1255.8,49532.4
1255.4,50017.6
1255,49517.6
1254.6,49614.7
1254.2,49314.7
1253.8,49638.2
1253.4,50382.4
1253,50432.4
1252.6,50420.6
1252.2,50576.5
1251.8,50176.5
1251.4,50391.2
1251,51411.8
1250.6,51517.6
1250.2,51197.1
1249.8,51523.5
1249.4,52108.8
1249,51629.4
1248.6,51597.1
1248.2,52558.8
1247.8,52614.7
1247.4,53638.2
1247,52811.8
1246.6,53805.9
1246.2,52950
1245.8,52850
1245.4,53091.2
1245,52376.5
1244.6,52458.8
1244.2,51908.8
1243.8,51444.1
1243.4,51523.5
1243,50702.9
1242.6,50532.4
1242.2,49729.4
1241.8,48279.4
1241.4,48811.8
1241,48038.2
1240.6,47673.5
1240.2,47505.9
1239.8,46579.4
1239.4,46902.9
1239,46894.1
1238.6,46214.7
1238.2,46420.6
1237.8,46194.1
1237.4,46158.8
1237,45588.2
1236.6,45908.8
1236.2,44635.3
1235.8,45111.8
1235.4,44988.2
1235,44982.4
1234.6,44955.9
1234.2,45432.4
1233.8,45750
1233.4,44929.4
1233,45417.6
1232.6,45367.6
1232.2,45120.6
1231.8,45585.3
1231.4,45908.8
1231,45558.8
1230.6,45617.6
1230.2,45958.8
1229.8,45747.1
1229.4,45144.1
1229,45182.4
1228.6,45085.3
1228.2,44979.4
1227.8,44691.2
1227.4,43588.2
1227,43600
1226.6,42991.2
1226.2,43038.2
1225.8,42923.5
1225.4,41752.9
1225,41741.2
1224.6,41770.6
1224.2,41026.5
1223.8,40970.6
1223.4,41361.8
1223,40644.1
1222.6,40023.5
1222.2,39850
1221.8,39858.8
1221.4,40061.8
1221,39400
1220.6,39758.8
1220.2,39308.8
1219.8,39247.1
1219.4,39520.6
1219,39308.8
1218.6,39020.6
1218.2,39008.8
1217.8,38602.9
1217.4,38391.2
1217,38708.8
1216.6,38300
1216.2,38955.9
1215.8,38088.2
1215.4,38652.9
1215,38364.7
1214.6,38435.3
1214.2,37820.6
1213.8,38735.3
1213.4,38052.9
1213,38217.6
1212.6,38179.4
1212.2,38029.4
1211.8,37529.4
1211.4,37658.8
1211,38114.7
1210.6,37752.9
1210.2,37611.8
1209.8,37970.6
1209.4,37735.3
1209,37791.2
1208.6,38182.4
1208.2,37579.4
1207.8,37600
1207.4,37702.9
1207,37214.7
1206.6,37255.9
1206.2,37214.7
1205.8,37126.5
1205.4,36858.8
1205,36764.7
1204.6,37600
1204.2,37005.9
1203.8,37388.2
1203.4,37758.8
1203,37014.7
1202.6,36920.6
1202.2,36905.9
1201.8,36647.1
1201.4,37055.9
1201,36802.9
1200.6,37358.8
1200.2,36508.8
1199.8,36858.8
1199.4,37038.2
1199,36829.4
1198.6,36835.3
1198.2,36623.5
1197.8,36100
1197.4,36738.2
1197,36900
1196.6,37005.9
1196.2,37079.4
1195.8,37355.9
1195.4,36432.4
1195,36938.2
1194.6,36694.1
1194.2,36723.5
1193.8,37032.4
1193.4,36467.6
1193,36779.4
1192.6,36726.5
1192.2,37088.2
1191.8,36802.9
1191.4,36005.9
1191,35373.5
1190.6,37105.9
1190.2,36617.6
1189.8,36888.2
1189.4,36752.9
1189,36508.8
1188.6,36394.1
1188.2,36488.2
1187.8,36485.3
1187.4,35720.6
1187,36073.5
1186.6,36300
1186.2,36144.1
1185.8,36635.3
1185.4,36202.9
1185,36147.1
1184.6,36738.2
1184.2,35938.2
1183.8,36714.7
1183.4,36344.1
1183,36602.9
1182.6,36023.5
1182.2,36179.4
1181.8,36138.2
1181.4,35867.6
1181,36450
1180.6,36273.5
1180.2,36767.6
1179.8,35741.2
1179.4,36405.9
1179,36650
1178.6,35920.6
1178.2,36385.3
1177.8,35826.5
1177.4,36152.9
1177,35955.9
1176.6,36152.9
1176.2,36111.8
1175.8,36579.4
1175.4,35582.4
1175,36244.1
1174.6,36776.5
1174.2,35608.8
1173.8,36750
1173.4,36629.4
1173,36144.1
1172.6,36729.4
1172.2,36450
1171.8,36385.3
1171.4,36341.2
1171,36705.9
1170.6,36211.8
1170.2,36250
1169.8,36547.1
1169.4,36694.1
1169,36229.4
1168.6,36755.9
1168.2,36876.5
1167.8,37132.4
1167.4,36520.6
1167,36700
1166.6,36641.2
1166.2,36808.8
1165.8,36676.5
1165.4,36332.4
1165,36752.9
1164.6,36614.7
1164.2,36352.9
1163.8,36532.4
1163.4,37011.8
1163,36158.8
1162.6,36573.5
1162.2,36644.1
1161.8,36229.4
1161.4,36252.9
1161,36373.5
1160.6,36302.9
1160.2,36744.1
1159.8,36558.8
1159.4,36682.4
1159,36876.5
1158.6,36685.3
1158.2,36308.8
1157.8,36208.8
1157.4,36617.6
1157,36923.5
1156.6,36164.7
1156.2,36900
1155.8,36385.3
1155.4,36850
1155,36417.6
1154.6,36502.9
1154.2,35914.7
1153.8,36432.4
1153.4,35673.5
1153,35967.6
1152.6,36147.1
1152.2,36729.4
1151.8,35991.2
1151.4,36882.4
1151,36350
1150.6,36638.2
1150.2,36052.9
1149.8,35641.2
1149.4,35973.5
1149,36861.8
1148.6,36797.1
1148.2,36576.5
1147.8,36911.8
1147.4,36505.9
1147,36705.9
1146.6,36064.7
1146.2,36638.2
1145.8,36538.2
1145.4,36429.4
1145,36102.9
1144.6,36938.2
1144.2,36897.1
1143.8,36279.4
1143.4,36841.2
1143,36950
1142.6,36582.4
1142.2,35820.6
1141.8,36502.9
1141.4,36097.1
1141,36447.1
1140.6,35852.9
1140.2,36388.2
1139.8,35697.1
1139.4,35729.4
1139,36061.8
1138.6,36070.6
1138.2,36061.8
1137.8,36414.7
1137.4,35997.1
1137,36138.2
1136.6,35708.8
1136.2,36223.5
1135.8,36329.4
1135.4,35961.8
1135,35929.4
1134.6,36597.1
1134.2,35952.9
1133.8,36794.1
1133.4,36229.4
1133,36720.6
1132.6,35932.4
1132.2,36826.5
1131.8,35938.2
1131.4,36188.2
1131,35902.9
1130.6,37679.4
1130.2,36370.6
1129.8,36373.5
1129.4,36650
1129,36208.8
1128.6,36470.6
1128.2,36485.3
1127.8,36252.9
1127.4,36452.9
1127,35414.7
1126.6,36014.7
1126.2,35735.3
1125.8,35694.1
1125.4,36497.1
1125,36023.5
1124.6,35644.1
1124.2,35802.9
1123.8,35647.1
1123.4,35820.6
1123,35967.6
1122.6,35538.2
1122.2,36350
1121.8,35852.9
1121.4,35864.7
1121,35758.8
1120.6,35926.5
1120.2,36094.1
1119.8,35573.5
1119.4,35794.1
1119,35673.5
1118.6,35673.5
1118.2,35714.7
1117.8,35417.6
1117.4,35738.2
1117,35744.1
1116.6,35535.3
1116.2,35617.6
1115.8,36132.4
1115.4,35535.3
1115,35805.9
1114.6,34414.7
1114.2,35655.9
1113.8,34988.2
1113.4,35379.4
1113,35185.3
1112.6,36247.1
1112.2,36070.6
1111.8,35817.6
1111.4,35926.5
1111,35573.5
1110.6,35344.1
1110.2,36785.3
1109.8,36094.1
1109.4,35644.1
1109,35908.8
1108.6,36000
1108.2,35500
1107.8,36076.5
1107.4,35420.6
1107,35541.2
1106.6,36238.2
1106.2,35676.5
1105.8,35964.7
1105.4,36252.9
1105,36217.6
1104.6,36232.4
1104.2,36202.9
1103.8,35926.5
1103.4,35961.8
1103,35888.2
1102.6,35791.2
1102.2,36100
1101.8,36179.4
1101.4,36402.9
1101,36061.8
1100.6,35855.9
1100.2,36120.6
1099.8,36050
1099.4,35855.9
1099,35917.6
1098.6,36573.5
1098.2,36147.1
1097.8,36323.5
1097.4,36417.6
1097,36091.2
1096.6,35914.7
1096.2,36676.5
1095.8,36238.2
1095.4,36347.1
1095,36344.1
1094.6,36344.1
1094.2,36058.8
1093.8,35720.6
1093.4,36511.8
1093,36058.8
1092.6,36152.9
1092.2,36076.5
1091.8,36550
1091.4,37223.5
1091,36682.4
1090.6,36026.5
1090.2,36491.2
1089.8,36679.4
1089.4,36555.9
1089,36541.2
1088.6,36211.8
1088.2,36394.1
1087.8,36626.5
1087.4,36050
1087,36282.4
1086.6,36323.5
1086.2,36067.6
1085.8,36305.9
1085.4,35720.6
1085,35644.1
1084.6,35376.5
1084.2,36202.9
1083.8,35297.1
1083.4,35617.6
1083,35855.9
1082.6,35547.1
1082.2,35735.3
1081.8,35685.3
1081.4,35802.9
1081,35350
1080.6,34864.7
1080.2,35155.9
1079.8,34802.9
1079.4,35226.5
1079,35379.4
1078.6,34797.1
1078.2,35244.1
1077.8,35608.8
1077.4,35038.2
1077,34876.5
1076.6,35832.4
1076.2,34761.8
1075.8,35029.4
1075.4,35264.7
1075,35064.7
1074.6,34835.3
1074.2,35132.4
1073.8,34247.1
1073.4,35185.3
1073,34579.4
1072.6,35294.1
1072.2,35182.4
1071.8,35205.9
1071.4,35058.8
1071,35273.5
1070.6,35435.3
1070.2,35135.3
1069.8,35070.6
1069.4,34691.2
1069,35408.8
1068.6,35317.6
1068.2,35441.2
1067.8,35076.5
1067.4,35138.2
1067,35535.3
1066.6,34335.3
1066.2,35329.4
1065.8,35394.1
1065.4,35258.8
1065,35373.5
1064.6,35041.2
1064.2,35126.5
1063.8,35100
1063.4,34235.3
1063,34435.3
1062.6,35450
1062.2,34955.9
1061.8,35614.7
1061.4,35620.6
1061,35241.2
1060.6,35258.8
1060.2,35444.1
1059.8,35185.3
1059.4,35250
1059,34744.1
1058.6,34994.1
1058.2,34632.4
1057.8,34782.4
1057.4,34970.6
1057,35088.2
1056.6,34861.8
1056.2,34817.6
1055.8,35185.3
1055.4,35300
1055,35467.6
1054.6,35323.5
1054.2,35411.8
1053.8,34741.2
1053.4,35300
1053,35550
1052.6,35429.4
1052.2,34867.6
1051.8,35055.9
1051.4,34967.6
1051,34911.8
1050.6,35185.3
1050.2,35176.5
1049.8,35061.8
1049.4,35373.5
1049,35097.1
1048.6,35285.3
1048.2,35105.9
1047.8,35823.5
1047.4,36385.3
1047,35955.9
1046.6,35617.6
1046.2,36108.8
1045.8,35617.6
1045.4,35823.5
1045,36226.5
1044.6,35244.1
1044.2,35752.9
1043.8,35673.5
1043.4,35585.3
1043,35735.3
1042.6,35017.6
1042.2,35685.3
1041.8,35670.6
1041.4,36470.6
1041,35876.5
1040.6,36150
1040.2,36000
1039.8,35950
1039.4,35776.5
1039,35555.9
1038.6,36305.9
1038.2,36214.7
1037.8,36182.4
1037.4,36100
1037,36411.8
1036.6,36529.4
1036.2,36632.4
1035.8,36000
1035.4,36276.5
1035,36308.8
1034.6,36208.8
1034.2,36338.2
1033.8,35935.3
1033.4,36529.4
1033,36035.3
1032.6,36529.4
1032.2,36164.7
1031.8,36947.1
1031.4,35852.9
1031,36611.8
1030.6,35752.9
1030.2,36232.4
1029.8,36852.9
1029.4,36326.5
1029,36135.3
1028.6,36670.6
1028.2,36026.5
1027.8,36297.1
1027.4,36244.1
1027,36244.1
1026.6,35735.3
1026.2,36032.4
1025.8,35855.9
1025.4,35429.4
1025,35897.1
1024.6,35676.5
1024.2,36258.8
1023.8,36205.9
1023.4,36173.5
1023,36126.5
1022.6,36229.4
1022.2,35644.1
1021.8,35458.8
1021.4,35902.9
1021,36370.6
1020.6,35841.2
1020.2,36082.4
1019.8,36550
1019.4,36038.2
1019,36032.4
1018.6,36161.8
1018.2,36000
1017.8,36270.6
1017.4,35617.6
1017,35997.1
1016.6,36335.3
1016.2,36252.9
1015.8,36697.1
1015.4,35473.5
1015,36523.5
1014.6,35702.9
1014.2,36167.6
1013.8,36164.7
1013.4,36841.2
1013,36844.1
1012.6,36785.3
1012.2,36102.9
1011.8,36291.2
1011.4,35929.4
1011,36250
1010.6,36541.2
1010.2,36655.9
1009.8,36082.4
1009.4,36567.6
1009,36420.6
1008.6,36276.5
1008.2,36364.7
1007.8,36552.9
1007.4,36729.4
1007,36297.1
1006.6,37044.1
1006.2,36335.3
1005.8,37226.5
1005.4,36591.2
1005,36717.6
1004.6,36673.5
1004.2,36073.5
1003.8,36538.2
1003.4,36120.6
1003,36120.6
1002.6,36770.6
1002.2,36302.9
1001.8,35823.5
1001.4,36400
1001,36526.5
1000.6,36661.8
1000.2,37011.8
999.8,36741.2
999.4,35791.2
999,35926.5
998.6,36502.9
998.2,36085.3
997.8,35623.5
997.4,36041.2
997,36791.2
996.6,36688.2
996.2,36473.5
995.8,36744.1
995.4,36829.4
995,36626.5
994.6,37029.4
994.2,37147.1
993.8,36600
993.4,36341.2
993,36223.5
992.6,36614.7
992.2,36188.2
991.8,36697.1
991.4,36850
991,36347.1
990.6,36358.8
990.2,36676.5
989.8,36682.4
989.4,36411.8
989,36058.8
988.6,36958.8
988.2,36476.5
987.8,37208.8
987.4,35961.8
987,37294.1
986.6,36808.8
986.2,36744.1
985.8,36650
985.4,36676.5
985,36864.7
984.6,36817.6
984.2,36570.6
983.8,36635.3
983.4,36064.7
983,36585.3
982.6,37076.5
982.2,36597.1
981.8,37547.1
981.4,36691.2
981,36602.9
980.6,37138.2
980.2,36644.1
979.8,36973.5
979.4,36064.7
979,37026.5
978.6,37035.3
978.2,36423.5
977.8,36470.6
977.4,36997.1
977,37058.8
976.6,36738.2
976.2,37155.9
975.8,36885.3
975.4,37614.7
975,36714.7
974.6,36961.8
974.2,37447.1
973.8,37073.5
973.4,36917.6
973,37167.6
972.6,37264.7
972.2,36811.8
971.8,37244.1
971.4,37129.4
971,37055.9
970.6,36870.6
970.2,37182.4
969.8,36991.2
969.4,37258.8
969,37629.4
968.6,37120.6
968.2,37320.6
967.8,37205.9
967.4,37941.2
967,36982.4
966.6,37055.9
966.2,37773.5
965.8,38058.8
965.4,36852.9
965,37273.5
964.6,37508.8
964.2,37258.8
963.8,37205.9
963.4,37364.7
963,37529.4
962.6,37150
962.2,37070.6
961.8,37285.3
961.4,37097.1
961,37805.9
960.6,37747.1
960.2,37797.1
959.8,37447.1
959.4,37976.5
959,38038.2
958.6,38470.6
958.2,37605.9
957.8,37985.3
957.4,38041.2
957,38044.1
956.6,38447.1
956.2,37632.4
955.8,37785.3
955.4,37920.6
955,37950
954.6,37441.2
954.2,37835.3
953.8,38341.2
953.4,38170.6
953,38041.2
952.6,37826.5
952.2,37905.9
951.8,38405.9
951.4,38261.8
951,37882.4
950.6,37958.8
950.2,38076.5
949.8,37861.8
949.4,38332.4
949,38397.1
948.6,38138.2
948.2,39035.3
947.8,38285.3
947.4,38526.5
947,38388.2
946.6,38155.9
946.2,38535.3
945.8,38417.6
945.4,38588.2
945,38247.1
944.6,38920.6
944.2,38252.9
943.8,38414.7
943.4,38376.5
943,38917.6
942.6,38244.1
942.2,38764.7
941.8,37902.9
941.4,38738.2
941,39082.4
940.6,38111.8
940.2,39164.7
939.8,38705.9
939.4,38944.1
939,38838.2
938.6,38991.2
938.2,39358.8
937.8,38494.1
937.4,38314.7
937,39185.3
936.6,39179.4
936.2,38658.8
935.8,38935.3
935.4,39588.2
935,39300
934.6,38438.2
934.2,39102.9
933.8,38914.7
933.4,39461.8
933,39070.6
932.6,39085.3
932.2,39141.2
931.8,39026.5
931.4,38626.5
931,38832.4
930.6,38876.5
930.2,38050
929.8,38688.2
929.4,39364.7
929,39735.3
928.6,39705.9
928.2,39076.5
927.8,39217.6
927.4,39479.4
927,38932.4
926.6,39302.9
926.2,39847.1
925.8,38726.5
925.4,38997.1
925,39261.8
924.6,39223.5
924.2,38958.8
923.8,39814.7
923.4,39264.7
923,39447.1
922.6,39470.6
922.2,39255.9
921.8,39647.1
921.4,39514.7
921,39517.6
920.6,40017.6
920.2,39535.3
919.8,39911.8
919.4,39832.4
919,39629.4
918.6,39905.9
918.2,39779.4
917.8,39402.9
917.4,40291.2
917,40244.1
916.6,39738.2
916.2,39673.5
915.8,39629.4
915.4,39779.4
915,39561.8
914.6,40432.4
914.2,39355.9
913.8,40423.5
913.4,40455.9
913,39626.5
912.6,39947.1
912.2,40238.2
911.8,39808.8
911.4,40194.1
911,40058.8
910.6,40097.1
910.2,40220.6
909.8,40432.4
909.4,41261.8
909,40685.3
908.6,40191.2
908.2,40385.3
907.8,40755.9
907.4,39911.8
907,39588.2
906.6,40064.7
906.2,39905.9
905.8,40158.8
905.4,40052.9
905,40150
904.6,40508.8
904.2,39885.3
903.8,39805.9
903.4,40155.9
903,40685.3
902.6,40223.5
902.2,40273.5
901.8,40161.8
901.4,40020.6
901,40411.8
900.6,40267.6
900.2,40558.8
899.8,40523.5
899.4,40335.3
899,40685.3
898.6,40670.6
898.2,40005.9
897.8,39738.2
897.4,40682.4
897,40747.1
896.6,40182.4
896.2,40750
895.8,41500
895.4,40720.6
895,40220.6
894.6,40564.7
894.2,40967.6
893.8,40738.2
893.4,40173.5
893,40288.2
892.6,41061.8
892.2,40297.1
891.8,39955.9
891.4,40611.8
891,40823.5
890.6,41282.4
890.2,40585.3
889.8,40520.6
889.4,41005.9
889,41132.4
888.6,40244.1
888.2,40820.6
887.8,41205.9
887.4,40814.7
887,41170.6
886.6,41314.7
886.2,40702.9
885.8,40294.1
885.4,41197.1
885,41094.1
884.6,41761.8
884.2,41370.6
883.8,41147.1
883.4,41123.5
883,40941.2
882.6,41200
882.2,41482.4
881.8,41297.1
881.4,41926.5
881,41988.2
880.6,41273.5
880.2,41347.1
879.8,41097.1
879.4,41214.7
879,41482.4
878.6,41208.8
878.2,41329.4
877.8,41329.4
877.4,41070.6
877,41838.2
876.6,41294.1
876.2,41355.9
875.8,41858.8
875.4,41541.2
875,41702.9
874.6,42158.8
874.2,41094.1
873.8,41505.9
873.4,42011.8
873,42079.4
872.6,42000
872.2,42108.8
871.8,41805.9
871.4,42041.2
871,42397.1
870.6,41982.4
870.2,42108.8
869.8,41505.9
869.4,42035.3
869,41564.7
868.6,42514.7
868.2,42035.3
867.8,42061.8
867.4,41905.9
867,42085.3
866.6,41911.8
866.2,42708.8
865.8,41973.5
865.4,42394.1
865,42191.2
864.6,42458.8
864.2,43108.8
863.8,42097.1
863.4,42211.8
863,42911.8
862.6,42676.5
862.2,42405.9
861.8,42402.9
861.4,42723.5
861,42355.9
860.6,42247.1
860.2,42329.4
859.8,42302.9
859.4,42826.5
859,42432.4
858.6,42994.1
858.2,42208.8
857.8,42517.6
857.4,42417.6
857,43041.2
856.6,43026.5
856.2,42711.8
855.8,42617.6
855.4,42417.6
855,42791.2
854.6,42926.5
854.2,43382.4
853.8,43220.6
853.4,42444.1
853,43035.3
852.6,43332.4
852.2,43285.3
851.8,42891.2
851.4,42802.9
851,43064.7
850.6,42855.9
850.2,43032.4
849.8,43870.6
849.4,42905.9
849,43573.5
848.6,42594.1
848.2,43211.8
847.8,43020.6
847.4,43129.4
847,42917.6
846.6,43388.2
846.2,43067.6
845.8,42955.9
845.4,44011.8
845,43752.9
844.6,43752.9
844.2,44094.1
843.8,43655.9
843.4,43379.4
843,43832.4
842.6,44235.3
842.2,43752.9
841.8,43626.5
841.4,43782.4
841,43985.3
840.6,44035.3
840.2,43794.1
839.8,44000
839.4,43941.2
839,43850
838.6,44317.6
838.2,44526.5
837.8,43411.8
837.4,44091.2
837,43982.4
836.6,44367.6
836.2,44258.8
835.8,44685.3
835.4,44132.4
835,44326.5
834.6,44250
834.2,43985.3
833.8,43785.3
833.4,44376.5
833,44205.9
832.6,44738.2
832.2,44223.5
831.8,44297.1
831.4,45032.4
831,45023.5
830.6,44329.4
830.2,44502.9
829.8,44002.9
829.4,44644.1
829,44788.2
828.6,44732.4
828.2,44400
827.8,45455.9
827.4,44714.7
827,44355.9
826.6,44902.9
826.2,44779.4
825.8,44979.4
825.4,44850
825,44520.6
824.6,44841.2
824.2,45302.9
823.8,45594.1
823.4,44820.6
823,44985.3
822.6,45500
822.2,44882.4
821.8,45900
821.4,46167.6
821,45979.4
820.6,45388.2
820.2,45408.8
819.8,45038.2
819.4,45526.5
819,45885.3
818.6,45297.1
818.2,45741.2
817.8,45700
817.4,45605.9
817,46202.9
816.6,46223.5
816.2,45902.9
815.8,45238.2
815.4,46376.5
815,45523.5
814.6,46650
814.2,45370.6
813.8,46005.9
813.4,45523.5
813,46600
812.6,46229.4
812.2,46570.6
811.8,46082.4
811.4,47032.4
811,46585.3
810.6,46079.4
810.2,46782.4
809.8,46661.8
809.4,46455.9
809,45914.7
808.6,46650
808.2,46094.1
807.8,46814.7
807.4,46641.2
807,46620.6
806.6,47100
806.2,46732.4
805.8,46632.4
805.4,47270.6
805,47061.8
804.6,47461.8
804.2,46758.8
803.8,46844.1
803.4,46744.1
803,46555.9
802.6,47491.2
802.2,46252.9
801.8,47405.9
801.4,47552.9
801,46967.6
800.6,47423.5
800.2,47420.6
799.8,46808.8
799.4,46791.2
799,47508.8
798.6,47911.8
798.2,47417.6
797.8,47747.1
797.4,47179.4
797,48341.2
796.6,47802.9
796.2,47714.7
795.8,47791.2
795.4,47841.2
795,47100
794.6,47926.5
794.2,47823.5
793.8,48714.7
793.4,47847.1
793,48032.4
792.6,47679.4
792.2,48194.1
791.8,47532.4
791.4,48600
791,48026.5
790.6,48876.5
790.2,48644.1
789.8,47755.9
789.4,48058.8
789,48126.5
788.6,48320.6
788.2,47997.1
787.8,48544.1
787.4,48141.2
787,48808.8
786.6,48588.2
786.2,48452.9
785.8,48320.6
785.4,48594.1
785,48938.2
784.6,48529.4
784.2,48397.1
783.8,49388.2
783.4,48879.4
783,49044.1
782.6,49088.2
782.2,49352.9
781.8,48697.1
781.4,49870.6
781,49664.7
780.6,49161.8
780.2,49332.4
779.8,49682.4
779.4,49026.5
779,49550
778.6,49614.7
778.2,49347.1
777.8,49673.5
777.4,49714.7
777,49670.6
776.6,49994.1
776.2,50467.6
775.8,49538.2
775.4,49732.4
775,51014.7
774.6,50311.8
774.2,50841.2
773.8,49797.1
773.4,50561.8
773,50676.5
772.6,51582.4
772.2,50952.9
771.8,51691.2
771.4,51500
771,51235.3
770.6,51588.2
770.2,52094.1
769.8,51747.1
769.4,51864.7
769,52788.2
768.6,52529.4
768.2,53347.1
767.8,53164.7
767.4,53082.4
767,53844.1
766.6,53858.8
766.2,53782.4
765.8,55541.2
765.4,54832.4
765,56411.8
764.6,55726.5
764.2,56279.4
763.8,57376.5
763.4,57414.7
763,58052.9
762.6,58794.1
762.2,58847.1
761.8,59320.6
761.4,58485.3
761,58935.3
760.6,59161.8
760.2,58311.8
759.8,57714.7
759.4,56879.4
759,56008.8
758.6,55432.4
758.2,55794.1
757.8,54597.1
757.4,53547.1
757,53041.2
756.6,52902.9
756.2,53102.9
755.8,51564.7
755.4,51991.2
755,51782.4
754.6,51023.5
754.2,51785.3
753.8,50591.2
753.4,50608.8
753,50464.7
752.6,51050
752.2,49500
751.8,50061.8
751.4,49605.9
751,49488.2
750.6,50285.3
750.2,49941.2
749.8,49820.6
749.4,48723.5
749,49285.3
748.6,49329.4
748.2,48700
747.8,48782.4
747.4,49167.6
747,49273.5
746.6,48252.9
746.2,48935.3
745.8,49385.3
745.4,48158.8
745,48067.6
744.6,48476.5
744.2,49220.6
743.8,49091.2
743.4,49358.8
743,49738.2
742.6,48123.5
742.2,48482.4
741.8,49155.9
741.4,49073.5
741,48929.4
740.6,48997.1
740.2,48732.4
739.8,48438.2
739.4,48926.5
739,48550
738.6,48744.1
738.2,48876.5
737.8,48797.1
737.4,48908.8
737,48885.3
736.6,49161.8
736.2,48326.5
735.8,48964.7
735.4,48726.5
735,48935.3
734.6,49435.3
734.2,48823.5
733.8,49194.1
733.4,49000
733,48670.6
732.6,49411.8
732.2,49676.5
731.8,49300
731.4,49111.8
731,49991.2
730.6,49467.6
730.2,49302.9
729.8,49620.6
729.4,49273.5
729,49058.8
728.6,49358.8
728.2,50138.2
727.8,49635.3
727.4,49232.4
727,49476.5
726.6,49864.7
726.2,50758.8
725.8,50235.3
725.4,49447.1
725,50288.2
724.6,49582.4
724.2,49502.9
723.8,50041.2
723.4,50173.5
723,49838.2
722.6,49847.1
722.2,50185.3
721.8,49235.3
721.4,50176.5
721,49773.5
720.6,50400
720.2,49817.6
719.8,50479.4
719.4,50220.6
719,50241.2
718.6,50573.5
718.2,49982.4
717.8,50782.4
717.4,50373.5
717,50476.5
716.6,50097.1
716.2,50826.5
715.8,50538.2
715.4,50082.4
715,50682.4
714.6,51364.7
714.2,50761.8
713.8,50744.1
713.4,51008.8
713,50829.4
712.6,50673.5
712.2,50976.5
711.8,51326.5
711.4,51141.2
711,50702.9
710.6,51135.3
710.2,51108.8
709.8,50164.7
709.4,50882.4
709,50911.8
708.6,51064.7
708.2,51573.5
707.8,50564.7
707.4,51597.1
707,51697.1
706.6,50947.1
706.2,51352.9
705.8,51579.4
705.4,51508.8
705,51938.2
704.6,51279.4
704.2,51400
703.8,51691.2
703.4,51764.7
703,51452.9
702.6,51688.2
702.2,51673.5
701.8,51338.2
701.4,51514.7
701,52491.2
700.6,51517.6
700.2,52252.9
699.8,52294.1
699.4,52647.1
699,51447.1
698.6,52702.9
698.2,52573.5
697.8,51752.9
697.4,52197.1
697,51958.8
696.6,51632.4
696.2,52805.9
695.8,51776.5
695.4,53002.9
695,52452.9
694.6,52873.5
694.2,52147.1
693.8,52691.2
693.4,53152.9
693,52991.2
692.6,53114.7
692.2,52638.2
691.8,53061.8
691.4,53102.9
691,53238.2
690.6,52585.3
690.2,52579.4
689.8,53311.8
689.4,52961.8
689,53135.3
688.6,53711.8
688.2,52891.2
687.8,53491.2
687.4,53735.3
687,53494.1
686.6,54102.9
686.2,53894.1
685.8,53655.9
685.4,53894.1
685,53088.2
684.6,54358.8
684.2,53661.8
683.8,54079.4
683.4,53935.3
683,54008.8
682.6,53347.1
682.2,53329.4
681.8,53967.6
681.4,54323.5
681,54055.9
680.6,54500
680.2,53791.2
679.8,55041.2
679.4,55173.5
679,55138.2
678.6,53891.2
678.2,54452.9
677.8,54102.9
677.4,54814.7
677,54129.4
676.6,54582.4
676.2,54511.8
675.8,55161.8
675.4,54747.1
675,54611.8
674.6,54497.1
674.2,55270.6
673.8,54464.7
673.4,55714.7
673,55076.5
672.6,55247.1
672.2,55041.2
671.8,54532.4
671.4,55326.5
671,55038.2
670.6,54955.9
670.2,55752.9
669.8,55858.8
669.4,55282.4
669,56176.5
668.6,56373.5
668.2,56035.3
667.8,55626.5
667.4,55885.3
667,55644.1
666.6,55314.7
666.2,55529.4
665.8,55829.4
665.4,56747.1
665,56079.4
664.6,56273.5
664.2,56352.9
663.8,56064.7
663.4,56270.6
663,56700
662.6,56120.6
662.2,57400
661.8,56085.3
661.4,56400
661,56864.7
660.6,57052.9
660.2,57367.6
659.8,56394.1
659.4,57135.3
659,57441.2
658.6,56850
658.2,57652.9
657.8,57650
657.4,57776.5
657,57517.6
656.6,58335.3
656.2,57338.2
655.8,58402.9
655.4,57385.3
655,58676.5
654.6,59441.2
654.2,57961.8
653.8,58741.2
653.4,58408.8
653,59123.5
652.6,58973.5
652.2,58955.9
651.8,59250
651.4,58982.4
651,59185.3
650.6,60108.8
650.2,59629.4
649.8,60717.6
649.4,60144.1
649,61555.9
648.6,61194.1
648.2,61785.3
647.8,62455.9
647.4,63017.6
647,63829.4
646.6,63979.4
646.2,64473.5
645.8,66335.3
645.4,66285.3
645,66950
644.6,66735.3
644.2,68594.1
643.8,69135.3
643.4,68997.1
643,70658.8
642.6,69964.7
642.2,70491.2
641.8,69747.1
641.4,69429.4
641,69364.7
640.6,68347.1
640.2,67691.2
639.8,66550
639.4,65594.1
639,64235.3
638.6,63347.1
638.2,62461.8
637.8,61826.5
637.4,61305.9
637,60341.2
636.6,60023.5
636.2,59832.4
635.8,60026.5
635.4,59261.8
635,57850
634.6,58273.5
634.2,58267.6
633.8,58432.4
633.4,58152.9
633,57829.4
632.6,57314.7
632.2,57823.5
631.8,56738.2
631.4,57032.4
631,56470.6
630.6,55711.8
630.2,57026.5
629.8,56691.2
629.4,57597.1
629,56964.7
628.6,56529.4
628.2,56197.1
627.8,56520.6
627.4,56505.9
627,55764.7
626.6,56323.5
626.2,55635.3
625.8,56300
625.4,56655.9
625,56805.9
624.6,56332.4
624.2,56105.9
623.8,56750
623.4,57067.6
623,56735.3
622.6,56847.1
622.2,56385.3
621.8,56552.9
621.4,55752.9
621,56735.3
620.6,57900
620.2,55952.9
619.8,56723.5
619.4,56882.4
619,57000
618.6,57676.5
618.2,56970.6
617.8,57173.5
617.4,57205.9
617,57288.2
616.6,57067.6
616.2,57100
615.8,57035.3
615.4,57505.9
615,57558.8
614.6,57547.1
614.2,57185.3
613.8,57000
613.4,57400
613,57129.4
612.6,57555.9
612.2,58032.4
611.8,57770.6
611.4,57326.5
611,57894.1
610.6,57302.9
610.2,57497.1
609.8,57779.4
609.4,57497.1
609,58182.4
608.6,58052.9
608.2,58000
607.8,58185.3
607.4,58073.5
607,58579.4
606.6,58664.7
606.2,57732.4
605.8,58611.8
605.4,58535.3
605,58511.8
604.6,58038.2
604.2,58538.2
603.8,58438.2
603.4,58505.9
603,58058.8
602.6,58635.3
602.2,58267.6
601.8,58402.9
601.4,58535.3
601,58635.3
600.6,59185.3
600.2,58994.1
599.8,59129.4
599.4,59208.8
599,58700
598.6,59547.1
598.2,59488.2
597.8,59294.1
597.4,59617.6
597,58761.8
596.6,59155.9
596.2,59261.8
595.8,59623.5
595.4,59394.1
595,59797.1
594.6,59488.2
594.2,59491.2
593.8,59844.1
593.4,59997.1
593,59579.4
592.6,61008.8
592.2,59270.6
591.8,60058.8
591.4,60485.3
591,60226.5
590.6,60238.2
590.2,60700
589.8,60764.7
589.4,60644.1
589,60264.7
588.6,60170.6
588.2,60770.6
587.8,61047.1
587.4,60885.3
587,61891.2
586.6,60741.2
586.2,61373.5
585.8,61120.6
585.4,61808.8
585,61447.1
584.6,61273.5
584.2,61852.9
583.8,62514.7
583.4,62120.6
583,62144.1
582.6,62429.4
582.2,63011.8
581.8,62108.8
581.4,62732.4
581,63244.1
580.6,61870.6
580.2,62626.5
579.8,62197.1
579.4,63252.9
579,63023.5
578.6,63214.7
578.2,62544.1
577.8,63238.2
577.4,62132.4
577,62997.1
576.6,63297.1
576.2,63058.8
575.8,62467.6
575.4,63332.4
575,63635.3
574.6,63694.1
574.2,63035.3
573.8,64305.9
573.4,63626.5
573,63423.5
572.6,63717.6
572.2,64161.8
571.8,63947.1
571.4,63697.1
571,64811.8
570.6,64120.6
570.2,63864.7
569.8,65058.8
569.4,64105.9
569,64317.6
568.6,64273.5
568.2,64217.6
567.8,64938.2
567.4,64470.6
567,63694.1
566.6,64067.6
566.2,64264.7
565.8,64750
565.4,63811.8
565,64605.9
564.6,65270.6
564.2,65111.8
563.8,65885.3
563.4,64811.8
563,66038.2
562.6,65841.2
562.2,65732.4
561.8,65673.5
561.4,66573.5
561,66117.6
560.6,67197.1
560.2,66273.5
559.8,67864.7
559.4,66626.5
559,67788.2
558.6,67761.8
558.2,68102.9
557.8,68300
557.4,69311.8
557,69426.5
556.6,69232.4
556.2,69688.2
555.8,70235.3
555.4,71035.3
555,70870.6
554.6,71052.9
554.2,72647.1
553.8,72335.3
553.4,73485.3
553,74114.7
552.6,74523.5
552.2,76520.6
551.8,76632.4
551.4,79323.5
551,80138.2
550.6,82276.5
550.2,85350
549.8,87650
549.4,89844.1
549,95111.8
548.6,98473.5
548.2,102382
547.8,107159
547.4,112259
547,114912
546.6,117203
546.2,117732
545.8,117671
545.4,114118
545,110006
544.6,104253
544.2,99226.5
543.8,92867.6
543.4,87352.9
543,83111.8
542.6,79400
542.2,76291.2
541.8,73741.2
541.4,70635.3
541,69758.8
540.6,66047.1
540.2,65058.8
539.8,64314.7
539.4,62626.5
539,62241.2
538.6,61755.9
538.2,60023.5
537.8,60102.9
537.4,59461.8
537,58232.4
536.6,58370.6
536.2,58105.9
535.8,57991.2
535.4,58311.8
535,57294.1
534.6,56555.9
534.2,56438.2
533.8,56685.3
533.4,56329.4
533,56155.9
532.6,55917.6
532.2,55505.9
531.8,55585.3
531.4,56152.9
531,55350
530.6,55661.8
530.2,54602.9
529.8,55652.9
529.4,55332.4
529,54697.1
528.6,54638.2
528.2,55432.4
527.8,55323.5
527.4,54517.6
527,55085.3
526.6,54764.7
526.2,54700
525.8,55000
525.4,55400
525,55414.7
524.6,55194.1
524.2,54661.8
523.8,54670.6
523.4,55367.6
523,55061.8
522.6,54738.2
522.2,54426.5
521.8,54755.9
521.4,54832.4
521,54135.3
520.6,54317.6
520.2,55455.9
519.8,54567.6
519.4,54632.4
519,54688.2
518.6,54305.9
518.2,54970.6
517.8,54688.2
517.4,54382.4
517,54473.5
516.6,55570.6
516.2,54923.5
515.8,55997.1
515.4,54776.5
515,54920.6
514.6,55223.5
514.2,55644.1
513.8,54938.2
513.4,55388.2
513,55567.6
512.6,55620.6
512.2,54647.1
511.8,55155.9
511.4,55544.1
511,55976.5
510.6,54926.5
510.2,55776.5
509.8,55644.1
509.4,55300
509,55552.9
508.6,55570.6
508.2,55732.4
507.8,55241.2
507.4,55429.4
507,56091.2
506.6,55367.6
506.2,55791.2
505.8,55802.9
505.4,55835.3
505,56417.6
504.6,56320.6
504.2,55311.8
503.8,56364.7
503.4,56364.7
503,56391.2
502.6,56026.5
502.2,56041.2
501.8,56029.4
501.4,56670.6
501,56408.8
500.6,55735.3
500.2,56317.6
499.8,56288.2
499.4,56452.9
499,56376.5
498.6,57350
498.2,57317.6
497.8,56670.6
497.4,56908.8
497,57058.8
496.6,56438.2
496.2,56932.4
495.8,56994.1
495.4,56888.2
495,57238.2
494.6,56894.1
494.2,56988.2
493.8,57529.4
493.4,57041.2
493,57644.1
492.6,56894.1
492.2,57570.6
491.8,57391.2
491.4,57967.6
491,57135.3
490.6,57750
490.2,57570.6
489.8,57252.9
489.4,56408.8
489,57097.1
488.6,57100
488.2,58070.6
487.8,57550
487.4,58164.7
487,57950
486.6,58232.4
486.2,58358.8
485.8,58655.9
485.4,58005.9
485,57747.1
484.6,57994.1
484.2,58444.1
483.8,57529.4
483.4,58138.2
483,57885.3
482.6,59205.9
482.2,57858.8
481.8,58191.2
481.4,58582.4
481,58926.5
480.6,58532.4
480.2,58894.1
479.8,58147.1
479.4,58841.2
479,58626.5
478.6,58691.2
478.2,58867.6
477.8,59441.2
477.4,59567.6
477,59288.2
476.6,59285.3
476.2,60297.1
475.8,59429.4
475.4,59029.4
475,59523.5
474.6,59000
474.2,59417.6
473.8,59611.8
473.4,59267.6
473,60255.9
472.6,59938.2
472.2,59226.5
471.8,59597.1
471.4,59602.9
471,59002.9
470.6,59955.9
470.2,59838.2
469.8,60117.6
469.4,59891.2
469,59579.4
468.6,59435.3
468.2,60682.4
467.8,59894.1
467.4,60367.6
467,60647.1
466.6,60661.8
466.2,60623.5
465.8,60794.1
465.4,60364.7
465,60502.9
464.6,60644.1
464.2,61114.7
463.8,60705.9
463.4,61708.8
463,61223.5
462.6,60900
462.2,61202.9
461.8,61305.9
461.4,62029.4
461,62208.8
460.6,60908.8
460.2,62011.8
459.8,61567.6
459.4,61497.1
459,61655.9
458.6,60879.4
458.2,62588.2
457.8,61888.2
457.4,62120.6
457,61829.4
456.6,62479.4
456.2,61405.9
455.8,62800
455.4,62111.8
455,62614.7
454.6,62370.6
454.2,61464.7
453.8,62079.4
453.4,62970.6
453,62888.2
452.6,62205.9
452.2,62405.9
451.8,62950
451.4,63344.1
451,63158.8
450.6,63017.6
450.2,63229.4
449.8,63482.4
449.4,63055.9
449,62891.2
448.6,63644.1
448.2,63597.1
447.8,64102.9
447.4,64276.5
447,64014.7
446.6,63094.1
446.2,63973.5
445.8,63917.6
445.4,63576.5
445,64070.6
444.6,64858.8
444.2,64320.6
443.8,64520.6
443.4,64111.8
443,63576.5
442.6,65079.4
442.2,64844.1
441.8,64000
441.4,66114.7
441,64741.2
440.6,64673.5
440.2,64758.8
439.8,64894.1
439.4,64638.2
439,65497.1
438.6,65091.2
438.2,65850
437.8,65500
437.4,65661.8
437,65617.6
436.6,65485.3
436.2,65347.1
435.8,65323.5
435.4,65473.5
435,66541.2
434.6,65802.9
434.2,66623.5
433.8,65947.1
433.4,67305.9
433,66964.7
432.6,66508.8
432.2,66773.5
431.8,66167.6
431.4,66961.8
431,67032.4
430.6,67179.4
430.2,66920.6
429.8,67088.2
429.4,67226.5
429,66655.9
428.6,67808.8
428.2,67747.1
427.8,66964.7
427.4,67817.6
427,67361.8
426.6,67535.3
426.2,67397.1
425.8,68270.6
425.4,68058.8
425,68129.4
424.6,68050
424.2,68450
423.8,68308.8
423.4,68223.5
423,67729.4
422.6,67800
422.2,69023.5
421.8,68097.1
421.4,69008.8
421,68694.1
420.6,69761.8
420.2,68982.4
419.8,69538.2
419.4,69038.2
419,69600
418.6,69135.3
418.2,69700
417.8,69385.3
417.4,70294.1
417,69282.4
416.6,69741.2
416.2,70400
415.8,69629.4
415.4,69902.9
415,70650
414.6,70411.8
414.2,70847.1
413.8,70623.5
413.4,70755.9
413,71102.9
412.6,71020.6
412.2,70738.2
411.8,70708.8
411.4,71955.9
411,71402.9
410.6,71950
410.2,71135.3
409.8,72361.8
409.4,70920.6
409,71547.1
408.6,72388.2
408.2,72070.6
407.8,71829.4
407.4,71938.2
407,72211.8
406.6,71758.8
406.2,72044.1
405.8,72682.4
405.4,72311.8
405,73197.1
404.6,72391.2
404.2,73744.1
403.8,72761.8
403.4,73308.8
403,73685.3
402.6,73802.9
402.2,73750
401.8,74114.7
401.4,73661.8
401,74270.6
400.6,73750
400.2,73758.8
399.8,74829.4
399.4,74047.1
399,75091.2
398.6,75161.8
398.2,75264.7
397.8,74635.3
397.4,75417.6
397,74929.4
396.6,75061.8
396.2,76432.4
395.8,75420.6
395.4,76226.5
395,76326.5
394.6,76414.7
394.2,75920.6
393.8,76367.6
393.4,76502.9
393,76170.6
392.6,76802.9
392.2,77470.6
391.8,76826.5
391.4,76997.1
391,76455.9
390.6,77617.6
390.2,77635.3
389.8,77770.6
389.4,77611.8
389,78235.3
388.6,77755.9
388.2,78552.9
387.8,78373.5
387.4,78782.4
387,77997.1
386.6,78600
386.2,78802.9
385.8,78867.6
385.4,79679.4
385,79447.1
384.6,79385.3
384.2,80420.6
383.8,80882.4
383.4,80070.6
383,80502.9
382.6,80473.5
382.2,80479.4
381.8,80605.9
381.4,80929.4
381,80476.5
380.6,81091.2
380.2,80817.6
379.8,81044.1
379.4,81300
379,81050
378.6,82597.1
378.2,81294.1
377.8,82194.1
377.4,82367.6
377,81747.1
376.6,83488.2
376.2,83623.5
375.8,82894.1
375.4,82602.9
375,83908.8
374.6,81964.7
374.2,83205.9
373.8,83785.3
373.4,84423.5
373,84173.5
372.6,83964.7
372.2,83844.1
371.8,85117.6
371.4,84967.6
371,84891.2
370.6,85982.4
370.2,85820.6
369.8,85264.7
369.4,86647.1
369,87041.2
368.6,86738.2
368.2,86802.9
367.8,87376.5
367.4,87814.7
367,88202.9
366.6,89682.4
366.2,89161.8
365.8,89950
365.4,90550
365,90979.4
364.6,91126.5
364.2,91508.8
363.8,92494.1
363.4,91867.6
363,91838.2
362.6,93188.2
362.2,93935.3
361.8,94405.9
361.4,93602.9
361,95329.4
360.6,96976.5
360.2,97767.6
359.8,99458.8
359.4,98947.1
359,102021
358.6,103276
358.2,106041
357.8,107629
357.4,110188
357,114821
356.6,118462
356.2,124241
355.8,131926
355.4,137591
355,146697
354.6,156000
354.2,165462
353.8,173388
353.4,179497
353,181638
352.6,178115
352.2,168726
351.8,159791
351.4,149165
351,138162
350.6,128950
350.2,119585
349.8,113294
349.4,107259
349,103562
348.6,99482.4
348.2,95688.2
347.8,92811.8
347.4,91205.9
347,89082.4
346.6,86994.1
346.2,86950
345.8,84885.3
345.4,83782.4
345,83302.9
344.6,84211.8
344.2,83341.2
343.8,83976.5
343.4,83552.9
343,83844.1
342.6,83632.4
342.2,86073.5
341.8,86817.6
341.4,88650
341,90555.9
340.6,92679.4
340.2,95214.7
339.8,98714.7
339.4,102829
339,108268
338.6,114524
338.2,122697
337.8,132124
337.4,144494
337,159018
336.6,174015
336.2,188335
335.8,206500
335.4,216188
335,220397
334.6,213332
334.2,198582
333.8,181453
333.4,161821
333,142891
332.6,125379
332.2,111397
331.8,99735.3
331.4,89908.8
331,82423.5
330.6,75782.4
330.2,69282.4
329.8,65282.4
329.4,61644.1
329,58976.5
328.6,55694.1
328.2,52823.5
327.8,51026.5
327.4,49155.9
327,47608.8
326.6,46882.4
326.2,45317.6
325.8,44700
325.4,43167.6
325,42191.2
324.6,42261.8
324.2,41335.3
323.8,40514.7
323.4,39855.9
323,38994.1
322.6,38570.6
322.2,38888.2
321.8,39002.9
321.4,38041.2
321,38605.9
320.6,37894.1
320.2,37567.6
319.8,37150
319.4,37217.6
319,36976.5
318.6,36573.5
318.2,36367.6
317.8,36150
317.4,36020.6
317,36411.8
316.6,36079.4
316.2,35282.4
315.8,35705.9
315.4,35617.6
315,35676.5
314.6,35226.5
314.2,35855.9
313.8,35067.6
313.4,35323.5
313,34814.7
312.6,35094.1
312.2,35602.9
311.8,34532.4
311.4,34573.5
311,35100
310.6,34220.6
310.2,34717.6
309.8,35179.4
309.4,34305.9
309,33714.7
308.6,34705.9
308.2,34711.8
307.8,34776.5
307.4,34626.5
307,34402.9
306.6,34438.2
306.2,34188.2
305.8,34938.2
305.4,34279.4
305,34564.7
304.6,34255.9
304.2,34273.5
303.8,34376.5
303.4,34435.3
303,33917.6
302.6,33902.9
302.2,34297.1
301.8,34232.4
301.4,33767.6
301,34252.9
300.6,34217.6
300.2,33373.5
299.8,34164.7
299.4,33764.7
299,34197.1
298.6,33750
298.2,34005.9
297.8,34023.5
297.4,34032.4
297,34214.7
296.6,34661.8
296.2,34397.1
295.8,34005.9
295.4,34358.8
295,34276.5
294.6,34235.3
294.2,35179.4
293.8,33841.2
293.4,34102.9
293,34008.8
292.6,34361.8
292.2,34500
291.8,34550
291.4,34258.8
291,34658.8
290.6,34238.2
290.2,34888.2
289.8,34817.6
289.4,34426.5
289,34058.8
288.6,34897.1
288.2,34517.6
287.8,34664.7
287.4,34308.8
287,34570.6
286.6,34397.1
286.2,34667.6
285.8,34605.9
285.4,34888.2
285,35247.1
284.6,35517.6
284.2,35644.1
283.8,35338.2
283.4,35097.1
283,34582.4
282.6,34367.6
282.2,34285.3
281.8,34770.6
281.4,35050
281,33955.9
280.6,35170.6
280.2,35182.4
279.8,34708.8
279.4,34723.5
279,34582.4
278.6,35120.6
278.2,34370.6
277.8,34738.2
277.4,35017.6
277,34973.5
276.6,34741.2
276.2,34752.9
275.8,35258.8
275.4,34852.9
275,35111.8
274.6,35429.4
274.2,35132.4
273.8,34711.8
273.4,34591.2
273,35182.4
272.6,35464.7
272.2,34888.2
271.8,34952.9
271.4,35397.1
271,35247.1
270.6,34761.8
270.2,35664.7
269.8,35329.4
269.4,34982.4
269,35511.8
268.6,35308.8
268.2,35435.3
267.8,35805.9
267.4,35702.9
267,35197.1
266.6,35794.1
266.2,35355.9
265.8,35711.8
265.4,34988.2
265,35647.1
264.6,35214.7
264.2,35797.1
263.8,35602.9
263.4,35147.1
263,35664.7
262.6,35685.3
262.2,36147.1
261.8,36229.4
261.4,35476.5
261,36332.4
260.6,35561.8
260.2,35791.2
259.8,35482.4
259.4,36147.1
259,35902.9
258.6,35688.2
258.2,35885.3
257.8,36420.6
257.4,36420.6
257,36335.3
256.6,36532.4
256.2,36911.8
255.8,36491.2
255.4,36338.2
255,36635.3
254.6,36161.8
254.2,36802.9
253.8,36611.8
253.4,36150
253,36667.6
252.6,36447.1
252.2,36264.7
251.8,36635.3
251.4,36400
251,36632.4
250.6,36982.4
250.2,36450
249.8,36794.1
249.4,36632.4
249,36544.1
248.6,36838.2
248.2,36858.8
247.8,36779.4
247.4,36573.5
247,37391.2
246.6,37067.6
246.2,37311.8
245.8,36470.6
245.4,37032.4
245,37911.8
244.6,37326.5
244.2,36926.5
243.8,37185.3
243.4,37511.8
243,38152.9
242.6,37467.6
242.2,38094.1
241.8,37694.1
241.4,38632.4
241,38079.4
240.6,38497.1
240.2,37782.4
239.8,37850
239.4,38538.2
239,37308.8
238.6,37635.3
238.2,37864.7
237.8,38055.9
237.4,37623.5
237,37247.1
236.6,37152.9
236.2,37482.4
235.8,38350
235.4,37650
235,38367.6
234.6,37067.6
234.2,38764.7
233.8,37782.4
233.4,38435.3
233,37738.2
232.6,38550
232.2,38264.7
231.8,38500
231.4,37573.5
231,38644.1
230.6,37823.5
230.2,37797.1
229.8,38897.1
229.4,38288.2
229,38402.9
228.6,38558.8
228.2,38447.1
227.8,39073.5
227.4,38900
227,38847.1
226.6,38802.9
226.2,38570.6
225.8,38885.3
225.4,38305.9
225,39073.5
224.6,38652.9
224.2,39088.2
223.8,38888.2
223.4,39405.9
223,39120.6
222.6,38744.1
222.2,38908.8
221.8,38908.8
221.4,39185.3
221,39070.6
220.6,38611.8
220.2,39497.1
219.8,39288.2
219.4,39200
219,39776.5
218.6,39400
218.2,39644.1
217.8,40264.7
217.4,39694.1
217,39261.8
216.6,40164.7
216.2,39941.2
215.8,39344.1
215.4,39605.9
215,39858.8
214.6,39952.9
214.2,39958.8
213.8,39588.2
213.4,39794.1
213,39691.2
212.6,39973.5
212.2,39526.5
211.8,40597.1
211.4,40202.9
211,39791.2
210.6,40220.6
210.2,40855.9
209.8,40361.8
209.4,40867.6
209,40050
208.6,40641.2
208.2,39691.2
207.8,40505.9
207.4,39955.9
207,40450
206.6,40573.5
206.2,41352.9
205.8,41297.1
205.4,41400
205,40858.8
204.6,40688.2
204.2,41176.5
203.8,40820.6
203.4,41108.8
203,41379.4
202.6,41211.8
202.2,41608.8
201.8,41620.6
201.4,41370.6
201,41417.6
200.6,40929.4
200.2,41679.4
199.8,41302.9
199.4,40973.5
199,41650
198.6,41550
198.2,42273.5
197.8,41855.9
197.4,41570.6
197,41841.2
196.6,42473.5
196.2,41785.3
195.8,42126.5
195.4,42279.4
195,41997.1
194.6,41738.2
194.2,41591.2
193.8,42158.8
193.4,41988.2
193,42085.3
192.6,42488.2
192.2,42694.1
191.8,42226.5
191.4,42288.2
191,42288.2
190.6,43255.9
190.2,42997.1
189.8,42905.9
189.4,42600
189,41791.2
188.6,43020.6
188.2,43091.2
187.8,43644.1
187.4,43641.2
187,44035.3
186.6,43605.9
186.2,43797.1
185.8,43564.7
185.4,43055.9
185,44194.1
184.6,43294.1
184.2,43932.4
183.8,43935.3
183.4,43405.9
183,43994.1
182.6,43435.3
182.2,43408.8
181.8,43923.5
181.4,43876.5
181,44576.5
180.6,43702.9
180.2,43679.4
179.8,44611.8
179.4,43917.6
179,44497.1
178.6,44494.1
178.2,44452.9
177.8,45402.9
177.4,45282.4
177,45032.4
176.6,44602.9
176.2,45041.2
175.8,44808.8
175.4,44858.8
175,44994.1
174.6,45770.6
174.2,46111.8
173.8,44802.9
173.4,46017.6
173,45247.1
172.6,45600
172.2,45588.2
171.8,45494.1
171.4,45532.4
171,45405.9
170.6,45597.1
170.2,46408.8
169.8,45755.9
169.4,46179.4
169,45773.5
168.6,45838.2
168.2,45461.8
167.8,45561.8
167.4,46017.6
167,46376.5
166.6,46358.8
166.2,46861.8
165.8,45917.6
165.4,46750
165,46155.9
164.6,46879.4
164.2,46494.1
163.8,47135.3
163.4,46838.2
163,46926.5
162.6,47035.3
162.2,47041.2
161.8,47750
161.4,47097.1
161,46691.2
160.6,46597.1
160.2,47382.4
159.8,47882.4
159.4,47797.1
159,47397.1
158.6,46973.5
158.2,48567.6
157.8,47229.4
157.4,48582.4
157,47997.1
156.6,47529.4
156.2,48611.8
155.8,48011.8
155.4,48402.9
155,48717.6
154.6,48423.5
154.2,48794.1
153.8,49229.4
153.4,49100
153,48467.6
152.6,49476.5
152.2,48855.9
151.8,49647.1
151.4,49332.4
151,49529.4
150.6,50132.4
150.2,49700
149.8,49576.5
149.4,49691.2
149,50217.6
148.6,49894.1
148.2,51152.9
147.8,50273.5
147.4,50047.1
147,50282.4
146.6,50197.1
146.2,50176.5
145.8,50350
145.4,50652.9
145,49988.2
144.6,50629.4
144.2,51300
143.8,50732.4
143.4,51202.9
143,51161.8
142.6,51279.4
142.2,51873.5
141.8,51358.8
141.4,51532.4
141,50941.2
140.6,51391.2
140.2,50670.6
139.8,52152.9
139.4,51779.4
139,51682.4
138.6,52464.7
138.2,52505.9
137.8,51782.4
137.4,52217.6
137,52505.9
136.6,52561.8
136.2,52202.9
135.8,53005.9
135.4,51982.4
135,53173.5
134.6,53202.9
134.2,52847.1
133.8,52808.8
133.4,52844.1
133,54008.8
132.6,53714.7
132.2,54779.4
131.8,53550
131.4,54079.4
131,54332.4
130.6,54264.7
130.2,54097.1
129.8,54702.9
129.4,54158.8
129,54611.8
128.6,54697.1
128.2,55200
127.8,55520.6
127.4,55576.5
127,55611.8
126.6,55714.7
126.2,55461.8
125.8,56782.4
125.4,56155.9
125,56644.1
124.6,57152.9
124.2,56441.2
123.8,57947.1
123.4,57905.9
123,57947.1
122.6,58585.3
122.2,58682.4
121.8,58723.5
121.4,59097.1
121,59126.5
120.6,59505.9
120.2,60141.2
119.8,60447.1
119.4,60558.8
119,59585.3
118.6,59955.9
118.2,60702.9
117.8,61152.9
117.4,59732.4
117,60761.8
116.6,60882.4
116.2,61247.1
115.8,61341.2
115.4,61714.7
115,61744.1
114.6,62555.9
114.2,62444.1
113.8,61752.9
113.4,62311.8
113,63370.6
112.6,62726.5
112.2,63717.6
111.8,63885.3
111.4,64623.5
111,64061.8
110.6,65014.7
110.2,64000
109.8,63967.6
109.4,64267.6
109,63323.5
108.6,63529.4
108.2,62682.4
107.8,62373.5
107.4,61573.5
107,61300
106.6,59894.1
106.2,60044.1
105.8,60170.6
105.4,59058.8
105,59647.1
104.6,58879.4
104.2,59829.4
103.8,58723.5
103.4,59682.4
103,59411.8
102.6,59638.2
102.2,60617.6
101.8,59982.4
101.4,61370.6
101,62126.5
100.6,61535.3
100.2,63020.6
99.8,62941.2
99.4,63361.8
99,65129.4
98.6,64758.8
98.2,64541.2
97.8,64611.8
97.4,64955.9
97,64767.6
96.6,65317.6
96.2,64229.4
95.8,65329.4
95.4,64988.2
95,66608.8
94.6,67058.8
94.2,68661.8
93.8,68341.2
93.4,67673.5
93,67982.4
92.6,68435.3
92.2,68467.6
91.8,69661.8
91.4,71688.2
91,75738.2
90.6,78620.6
90.2,83402.9
89.8,93138.2
89.4,111691
89,144135
88.6,207368
88.2,312321
87.8,429041
87.4,434403
87,307071
86.6,184379
86.2,124862
85.8,122035
85.4,149921
85,213291
84.6,336506
84.2,488479
83.8,532374
83.4,384391
83,195347
82.6,94214.7
82.2,54558.8
81.8,41426.5
81.4,33861.8
81,30300
80.6,26452.9
80.2,23950
79.8,21629.4
79.4,20147.1
79,18705.9
78.6,17038.2
78.2,16391.2
77.8,15664.7
77.4,15423.5
77,15500
76.6,15538.2
76.2,15623.5
75.8,15958.8
75.4,15561.8
75,16432.4
74.6,16541.2
74.2,16476.5
73.8,16264.7
73.4,15955.9
73,15808.8
72.6,15576.5
72.2,15241.2
71.8,14388.2
71.4,13970.6
71,13405.9
70.6,12932.4
70.2,12255.9
69.8,12479.4
69.4,11976.5
69,11988.2
68.6,11458.8
68.2,11158.8
67.8,10897.1
67.4,10697.1
67,11144.1
66.6,10955.9
66.2,10655.9
65.8,11138.2
65.4,10902.9
65,11194.1
64.6,11117.6
64.2,11485.3
63.8,11791.2
63.4,12102.9
63,12167.6
62.6,12614.7
62.2,12817.6
61.8,12935.3
61.4,13938.2
61,14523.5
60.6,15708.8
60.2,16285.3
59.8,17035.3
59.4,18711.8
59,18820.6
58.6,20361.8
58.2,21070.6
57.8,22017.6
57.4,22611.8
57,22761.8
56.6,22052.9
56.2,21064.7
55.8,19761.8
55.4,18997.1
55,17438.2
54.6,15867.6
54.2,15314.7
53.8,13773.5
53.4,13041.2
53,11967.6
52.6,11285.3
52.2,10329.4
51.8,9723.53
51.4,9435.29
51,8926.47
50.6,8385.29
50.2,8352.94
49.8,7855.88
49.4,7782.35
49,7561.76
48.6,7300
48.2,7094.12
47.8,6955.88
47.4,6702.94
47,6488.24
46.6,6817.65
46.2,6682.35
45.8,6302.94
45.4,6258.82
45,6176.47
44.6,6229.41
44.2,5982.35
43.8,6011.76
43.4,5958.82
43,6067.65
42.6,6182.35
42.2,5891.18
41.8,6158.82
41.4,5938.24
41,6138.24
40.6,5867.65
40.2,5811.76
39.8,5967.65
39.4,6079.41
39,5882.35
38.6,5797.06
38.2,6176.47
37.8,5814.71
37.4,6155.88
37,5985.29
36.6,6176.47
36.2,5838.24
35.8,5761.76
35.4,5847.06
35,5785.29
34.6,5797.06
34.2,5791.18
33.8,5905.88
33.4,5820.59
33,5902.94
32.6,5717.65
32.2,5655.88
31.8,6055.88
31.4,6161.76
31,5988.24
30.6,5938.24
30.2,6029.41
29.8,6041.18
29.4,6108.82
29,6111.76
28.6,5994.12
28.2,5717.65
27.8,5641.18
27.4,5558.82
27,6014.71
26.6,5494.12
26.2,5620.59
25.8,5629.41
25.4,5285.29
25,5170.59
24.6,5270.59
24.2,5405.88
23.8,5408.82
23.4,5552.94
23,5417.65
22.6,5567.65
22.2,5711.76
21.8,5741.18
21.4,5694.12
21,5750
20.6,5464.71
20.2,5797.06
19.8,5732.35
19.4,5873.53
19,6108.82
18.6,6102.94
18.2,6208.82
17.8,6102.94
17.4,6247.06
17,6247.06
16.6,6202.94
16.2,6608.82
15.8,6605.88
15.4,6220.59
15,6502.94
14.6,6605.88
14.2,6594.12
13.8,6602.94
13.4,6608.82
13,6976.47
12.6,6929.41
12.2,7185.29
11.8,7102.94
11.4,7244.12
11,7611.76
10.6,7614.71
10.2,7917.65
9.8,8785.29
9.4,9447.06
9,10391.2
8.6,12494.1
8.2,15523.5
7.8,20467.6
7.4,26241.2
7,32044.1
6.6,35714.7
6.2,37438.2
5.8,35558.8
5.4,33485.3
5,32979.4
4.6,35247.1
4.2,39170.6
3.8,41576.5
3.4,42197.1
3,41302.9
2.6,36135.3
2.2,27417.6
1.8,17038.2
1.4,9988.24
1,6826.47
0.6,5588.24
0.2,4270.59
-0.2,2847.06
-0.6,1770.59
-1,1076.47
