,
,
Characteristic Energy eV,1486.6
BE_Sur1 1,CPS_Sur1 1
1398.6,21907.5
1398.2,22030
1397.8,22295
1397.4,22322.5
1397,21942.5
1396.6,21860
1396.2,21902.5
1395.8,21670
1395.4,22000
1395,21840
1394.6,22130
1394.2,22175
1393.8,22107.5
1393.4,22075
1393,21825
1392.6,22087.5
1392.2,21815
1391.8,21997.5
1391.4,21805
1391,21745
1390.6,21732.5
1390.2,21370
1389.8,21850
1389.4,21247.5
1389,21637.5
1388.6,21372.5
1388.2,21390
1387.8,21360
1387.4,21535
1387,21487.5
1386.6,21677.5
1386.2,21285
1385.8,21575
1385.4,21167.5
1385,21760
1384.6,20872.5
1384.2,21280
1383.8,21025
1383.4,21395
1383,20420
1382.6,20795
1382.2,20817.5
1381.8,20960
1381.4,20847.5
1381,20897.5
1380.6,20885
1380.2,21192.5
1379.8,20720
1379.4,20615
1379,20720
1378.6,20512.5
1378.2,20567.5
1377.8,20905
1377.4,21057.5
1377,21117.5
1376.6,20715
1376.2,20290
1375.8,20837.5
1375.4,20622.5
1375,20635
1374.6,20425
1374.2,20797.5
1373.8,20372.5
1373.4,20660
1373,20362.5
1372.6,20587.5
1372.2,20345
1371.8,20540
1371.4,20295
1371,20022.5
1370.6,20327.5
1370.2,20687.5
1369.8,20290
1369.4,20387.5
1369,20677.5
1368.6,20362.5
1368.2,19852.5
1367.8,20625
1367.4,20272.5
1367,20130
1366.6,20480
1366.2,20130
1365.8,20200
1365.4,20140
1365,19822.5
1364.6,19800
1364.2,20307.5
1363.8,19835
1363.4,20377.5
1363,19855
1362.6,19880
1362.2,19885
1361.8,20125
1361.4,19945
1361,20182.5
1360.6,19795
1360.2,20202.5
1359.8,19612.5
1359.4,19405
1359,19935
1358.6,19787.5
1358.2,19995
1357.8,19440
1357.4,19757.5
1357,19945
1356.6,19707.5
1356.2,19362.5
1355.8,19697.5
1355.4,19640
1355,19770
1354.6,19777.5
1354.2,19550
1353.8,19582.5
1353.4,19947.5
1353,19642.5
1352.6,19532.5
1352.2,19770
1351.8,19860
1351.4,19680
1351,18932.5
1350.6,19790
1350.2,19360
1349.8,19492.5
1349.4,19342.5
1349,19957.5
1348.6,19237.5
1348.2,19315
1347.8,19415
1347.4,19412.5
1347,19102.5
1346.6,19220
1346.2,19330
1345.8,19300
1345.4,19442.5
1345,19470
1344.6,19595
1344.2,19240
1343.8,19327.5
1343.4,19122.5
1343,18902.5
1342.6,18890
1342.2,19230
1341.8,18932.5
1341.4,19340
1341,19267.5
1340.6,19180
1340.2,19252.5
1339.8,19127.5
1339.4,18745
1339,19210
1338.6,19252.5
1338.2,18922.5
1337.8,18872.5
1337.4,18740
1337,18752.5
1336.6,18807.5
1336.2,18970
1335.8,18857.5
1335.4,18500
1335,18622.5
1334.6,18622.5
1334.2,18632.5
1333.8,18940
1333.4,18802.5
1333,18377.5
1332.6,18862.5
1332.2,18965
1331.8,18772.5
1331.4,18552.5
1331,18595
1330.6,18700
1330.2,18530
1329.8,18382.5
1329.4,18595
1329,18512.5
1328.6,18202.5
1328.2,18232.5
1327.8,18415
1327.4,18327.5
1327,18082.5
1326.6,18422.5
1326.2,18500
1325.8,18807.5
1325.4,18240
1325,18970
1324.6,18285
1324.2,18617.5
1323.8,18582.5
1323.4,18385
1323,18740
1322.6,18522.5
1322.2,18370
1321.8,18570
1321.4,18545
1321,18232.5
1320.6,18315
1320.2,18185
1319.8,18507.5
1319.4,18752.5
1319,18235
1318.6,18635
1318.2,18440
1317.8,18305
1317.4,18295
1317,18575
1316.6,18607.5
1316.2,18420
1315.8,19005
1315.4,18235
1315,18275
1314.6,18335
1314.2,18672.5
1313.8,18632.5
1313.4,18532.5
1313,18535
1312.6,18742.5
1312.2,18427.5
1311.8,18447.5
1311.4,18202.5
1311,18295
1310.6,18382.5
1310.2,18755
1309.8,18747.5
1309.4,18310
1309,18350
1308.6,18847.5
1308.2,18467.5
1307.8,18630
1307.4,18687.5
1307,18377.5
1306.6,18750
1306.2,18870
1305.8,18182.5
1305.4,18430
1305,18427.5
1304.6,18545
1304.2,18775
1303.8,18605
1303.4,18470
1303,18585
1302.6,18592.5
1302.2,18745
1301.8,18195
1301.4,18720
1301,18715
1300.6,18460
1300.2,18730
1299.8,18585
1299.4,18667.5
1299,18577.5
1298.6,18587.5
1298.2,18640
1297.8,18540
1297.4,18697.5
1297,18650
1296.6,18957.5
1296.2,18447.5
1295.8,18807.5
1295.4,18882.5
1295,18822.5
1294.6,18775
1294.2,18735
1293.8,18450
1293.4,18380
1293,18582.5
1292.6,19155
1292.2,19105
1291.8,18905
1291.4,18475
1291,18897.5
1290.6,19100
1290.2,18635
1289.8,18970
1289.4,18807.5
1289,18642.5
1288.6,18902.5
1288.2,18867.5
1287.8,18870
1287.4,19170
1287,19210
1286.6,18730
1286.2,18692.5
1285.8,18795
1285.4,19135
1285,18690
1284.6,19297.5
1284.2,18970
1283.8,19140
1283.4,19545
1283,18700
1282.6,19350
1282.2,18890
1281.8,18910
1281.4,19152.5
1281,19192.5
1280.6,19157.5
1280.2,19092.5
1279.8,19167.5
1279.4,18735
1279,19212.5
1278.6,19130
1278.2,19147.5
1277.8,19065
1277.4,19220
1277,19142.5
1276.6,19220
1276.2,19460
1275.8,19322.5
1275.4,19280
1275,19397.5
1274.6,19182.5
1274.2,19320
1273.8,19210
1273.4,19440
1273,19075
1272.6,19442.5
1272.2,19562.5
1271.8,19545
1271.4,19482.5
1271,19597.5
1270.6,19257.5
1270.2,19557.5
1269.8,19495
1269.4,19277.5
1269,19375
1268.6,19475
1268.2,19842.5
1267.8,19582.5
1267.4,19282.5
1267,19335
1266.6,19450
1266.2,20015
1265.8,19762.5
1265.4,19710
1265,19695
1264.6,20090
1264.2,19810
1263.8,19965
1263.4,19707.5
1263,20042.5
1262.6,19860
1262.2,19717.5
1261.8,19387.5
1261.4,19545
1261,19870
1260.6,20095
1260.2,20122.5
1259.8,19705
1259.4,20490
1259,20032.5
1258.6,20322.5
1258.2,20002.5
1257.8,19507.5
1257.4,19862.5
1257,19830
1256.6,20000
1256.2,20217.5
1255.8,20362.5
1255.4,20020
1255,19617.5
1254.6,20590
1254.2,20492.5
1253.8,20455
1253.4,20415
1253,20267.5
1252.6,20765
1252.2,20262.5
1251.8,20332.5
1251.4,20965
1251,20327.5
1250.6,20045
1250.2,20400
1249.8,20477.5
1249.4,20797.5
1249,20472.5
1248.6,20595
1248.2,20755
1247.8,20862.5
1247.4,20817.5
1247,20830
1246.6,20350
1246.2,21072.5
1245.8,20845
1245.4,20202.5
1245,20987.5
1244.6,20510
1244.2,20587.5
1243.8,20442.5
1243.4,20797.5
1243,20935
1242.6,20732.5
1242.2,20852.5
1241.8,20770
1241.4,21012.5
1241,21240
1240.6,21145
1240.2,21192.5
1239.8,21097.5
1239.4,20845
1239,20830
1238.6,21032.5
1238.2,20712.5
1237.8,21125
1237.4,21552.5
1237,20747.5
1236.6,21125
1236.2,21120
1235.8,21167.5
1235.4,21092.5
1235,21312.5
1234.6,21442.5
1234.2,21145
1233.8,21150
1233.4,21837.5
1233,21132.5
1232.6,21677.5
1232.2,21570
1231.8,21922.5
1231.4,21650
1231,21557.5
1230.6,21340
1230.2,22042.5
1229.8,21930
1229.4,22147.5
1229,22710
1228.6,21732.5
1228.2,22000
1227.8,22022.5
1227.4,22295
1227,22707.5
1226.6,22445
1226.2,22035
1225.8,22317.5
1225.4,22155
1225,22582.5
1224.6,22417.5
1224.2,22247.5
1223.8,22317.5
1223.4,22627.5
1223,22675
1222.6,22272.5
1222.2,22467.5
1221.8,22185
1221.4,22080
1221,22060
1220.6,21865
1220.2,21590
1219.8,21517.5
1219.4,21605
1219,21417.5
1218.6,21632.5
1218.2,21447.5
1217.8,21360
1217.4,21337.5
1217,21365
1216.6,21000
1216.2,20665
1215.8,20777.5
1215.4,21297.5
1215,20620
1214.6,20647.5
1214.2,20865
1213.8,20545
1213.4,20592.5
1213,20710
1212.6,20975
1212.2,20550
1211.8,20077.5
1211.4,20560
1211,20152.5
1210.6,20435
1210.2,20107.5
1209.8,20347.5
1209.4,20602.5
1209,20497.5
1208.6,20555
1208.2,20247.5
1207.8,20975
1207.4,20655
1207,20632.5
1206.6,21087.5
1206.2,20667.5
1205.8,20510
1205.4,20435
1205,20695
1204.6,20457.5
1204.2,20342.5
1203.8,20190
1203.4,20827.5
1203,20252.5
1202.6,20480
1202.2,20210
1201.8,20357.5
1201.4,20267.5
1201,21025
1200.6,20812.5
1200.2,20870
1199.8,20670
1199.4,20850
1199,20675
1198.6,20675
1198.2,20480
1197.8,20987.5
1197.4,20987.5
1197,20950
1196.6,20845
1196.2,21242.5
1195.8,21037.5
1195.4,21070
1195,20637.5
1194.6,20865
1194.2,20752.5
1193.8,20997.5
1193.4,20840
1193,21007.5
1192.6,21252.5
1192.2,21202.5
1191.8,20997.5
1191.4,21067.5
1191,20922.5
1190.6,21220
1190.2,21142.5
1189.8,21287.5
1189.4,20892.5
1189,21080
1188.6,21005
1188.2,21020
1187.8,20795
1187.4,21082.5
1187,21195
1186.6,21117.5
1186.2,21377.5
1185.8,21772.5
1185.4,21192.5
1185,21682.5
1184.6,21295
1184.2,21487.5
1183.8,21385
1183.4,21645
1183,20977.5
1182.6,21582.5
1182.2,21227.5
1181.8,21607.5
1181.4,21650
1181,21710
1180.6,21505
1180.2,21485
1179.8,21417.5
1179.4,22012.5
1179,21512.5
1178.6,21762.5
1178.2,21687.5
1177.8,21852.5
1177.4,21802.5
1177,21955
1176.6,21452.5
1176.2,21525
1175.8,21437.5
1175.4,21632.5
1175,22062.5
1174.6,22327.5
1174.2,21610
1173.8,22085
1173.4,22162.5
1173,22220
1172.6,21685
1172.2,22190
1171.8,22007.5
1171.4,21867.5
1171,22055
1170.6,22642.5
1170.2,22135
1169.8,21877.5
1169.4,22350
1169,22085
1168.6,22357.5
1168.2,22245
1167.8,21975
1167.4,22470
1167,22342.5
1166.6,22227.5
1166.2,22105
1165.8,22450
1165.4,22345
1165,22545
1164.6,22537.5
1164.2,22042.5
1163.8,21992.5
1163.4,22405
1163,22492.5
1162.6,22070
1162.2,22597.5
1161.8,22375
1161.4,22735
1161,22545
1160.6,23005
1160.2,22655
1159.8,22900
1159.4,22260
1159,22870
1158.6,22510
1158.2,22785
1157.8,22560
1157.4,22722.5
1157,22780
1156.6,22822.5
1156.2,22485
1155.8,22410
1155.4,23025
1155,22935
1154.6,22902.5
1154.2,23097.5
1153.8,23117.5
1153.4,23115
1153,22792.5
1152.6,23557.5
1152.2,23010
1151.8,23212.5
1151.4,22992.5
1151,23180
1150.6,22762.5
1150.2,23547.5
1149.8,23180
1149.4,22907.5
1149,23575
1148.6,23100
1148.2,23280
1147.8,23352.5
1147.4,23240
1147,23120
1146.6,23582.5
1146.2,23505
1145.8,23632.5
1145.4,23422.5
1145,23357.5
1144.6,23702.5
1144.2,23772.5
1143.8,23460
1143.4,23477.5
1143,23525
1142.6,23660
1142.2,23462.5
1141.8,23277.5
1141.4,23457.5
1141,23525
1140.6,23570
1140.2,23460
1139.8,23995
1139.4,23760
1139,23545
1138.6,24160
1138.2,23707.5
1137.8,23962.5
1137.4,23765
1137,23727.5
1136.6,23762.5
1136.2,24337.5
1135.8,24102.5
1135.4,23975
1135,24215
1134.6,24225
1134.2,23772.5
1133.8,23840
1133.4,23917.5
1133,24175
1132.6,24080
1132.2,24090
1131.8,24240
1131.4,24342.5
1131,24172.5
1130.6,24027.5
1130.2,24440
1129.8,24277.5
1129.4,23895
1129,24355
1128.6,24577.5
1128.2,24470
1127.8,24472.5
1127.4,24462.5
1127,25007.5
1126.6,24410
1126.2,24552.5
1125.8,24672.5
1125.4,24420
1125,24670
1124.6,24400
1124.2,24137.5
1123.8,24647.5
1123.4,24747.5
1123,24475
1122.6,24780
1122.2,24912.5
1121.8,24295
1121.4,24672.5
1121,25170
1120.6,24320
1120.2,25035
1119.8,25102.5
1119.4,24690
1119,25087.5
1118.6,24695
1118.2,24367.5
1117.8,24770
1117.4,25207.5
1117,24495
1116.6,24407.5
1116.2,24772.5
1115.8,24965
1115.4,24652.5
1115,24987.5
1114.6,24712.5
1114.2,25352.5
1113.8,24792.5
1113.4,25060
1113,25175
1112.6,25347.5
1112.2,25115
1111.8,25222.5
1111.4,24902.5
1111,25197.5
1110.6,24947.5
1110.2,25142.5
1109.8,25422.5
1109.4,25317.5
1109,25570
1108.6,25307.5
1108.2,25110
1107.8,25755
1107.4,25137.5
1107,25437.5
1106.6,25310
1106.2,25517.5
1105.8,25417.5
1105.4,25855
1105,25525
1104.6,25615
1104.2,25817.5
1103.8,25342.5
1103.4,25792.5
1103,25447.5
1102.6,25795
1102.2,25585
1101.8,25470
1101.4,25702.5
1101,25090
1100.6,26030
1100.2,25227.5
1099.8,25912.5
1099.4,25490
1099,25777.5
1098.6,25357.5
1098.2,25527.5
1097.8,25392.5
1097.4,25960
1097,25657.5
1096.6,25605
1096.2,25805
1095.8,25607.5
1095.4,25205
1095,25900
1094.6,25702.5
1094.2,25767.5
1093.8,25695
1093.4,25257.5
1093,25455
1092.6,25637.5
1092.2,25617.5
1091.8,25415
1091.4,24915
1091,25482.5
1090.6,25400
1090.2,25632.5
1089.8,25752.5
1089.4,25170
1089,25275
1088.6,25085
1088.2,25280
1087.8,25102.5
1087.4,25180
1087,25535
1086.6,25595
1086.2,25185
1085.8,25720
1085.4,25247.5
1085,26025
1084.6,25440
1084.2,25562.5
1083.8,26115
1083.4,25362.5
1083,25662.5
1082.6,25490
1082.2,25915
1081.8,25660
1081.4,25702.5
1081,26052.5
1080.6,25600
1080.2,25900
1079.8,26035
1079.4,25552.5
1079,26107.5
1078.6,26157.5
1078.2,25527.5
1077.8,25980
1077.4,25825
1077,26115
1076.6,26195
1076.2,25460
1075.8,26265
1075.4,25780
1075,25590
1074.6,26277.5
1074.2,25815
1073.8,26157.5
1073.4,25740
1073,26205
1072.6,26027.5
1072.2,26817.5
1071.8,26095
1071.4,26372.5
1071,25992.5
1070.6,27117.5
1070.2,26710
1069.8,26382.5
1069.4,26205
1069,26302.5
1068.6,26580
1068.2,26682.5
1067.8,26747.5
1067.4,26530
1067,26377.5
1066.6,26937.5
1066.2,26690
1065.8,26330
1065.4,26467.5
1065,26545
1064.6,26410
1064.2,26725
1063.8,26515
1063.4,26435
1063,26882.5
1062.6,26690
1062.2,27050
1061.8,26565
1061.4,26850
1061,27282.5
1060.6,27077.5
1060.2,26932.5
1059.8,27215
1059.4,26915
1059,26535
1058.6,27135
1058.2,27045
1057.8,27320
1057.4,26800
1057,27205
1056.6,27265
1056.2,26762.5
1055.8,26922.5
1055.4,26925
1055,27112.5
1054.6,26872.5
1054.2,27275
1053.8,27135
1053.4,27687.5
1053,27222.5
1052.6,27070
1052.2,27237.5
1051.8,26992.5
1051.4,27157.5
1051,27312.5
1050.6,27462.5
1050.2,27652.5
1049.8,27052.5
1049.4,27335
1049,27370
1048.6,27982.5
1048.2,27817.5
1047.8,27585
1047.4,27912.5
1047,27972.5
1046.6,27710
1046.2,28242.5
1045.8,27680
1045.4,27547.5
1045,28302.5
1044.6,28475
1044.2,27867.5
1043.8,27880
1043.4,28155
1043,28045
1042.6,27867.5
1042.2,27742.5
1041.8,28405
1041.4,28282.5
1041,28360
1040.6,27790
1040.2,28237.5
1039.8,28552.5
1039.4,28180
1039,28335
1038.6,28200
1038.2,28072.5
1037.8,27670
1037.4,27725
1037,27975
1036.6,28862.5
1036.2,28587.5
1035.8,28367.5
1035.4,28677.5
1035,28120
1034.6,28380
1034.2,28915
1033.8,28480
1033.4,28382.5
1033,28920
1032.6,28545
1032.2,28970
1031.8,28950
1031.4,28825
1031,29050
1030.6,29065
1030.2,29452.5
1029.8,28697.5
1029.4,28867.5
1029,28917.5
1028.6,28545
1028.2,28955
1027.8,28642.5
1027.4,28900
1027,28857.5
1026.6,28937.5
1026.2,29040
1025.8,28837.5
1025.4,29125
1025,28635
1024.6,29310
1024.2,29602.5
1023.8,28892.5
1023.4,28985
1023,29370
1022.6,29285
1022.2,30062.5
1021.8,29912.5
1021.4,29400
1021,30030
1020.6,29470
1020.2,29302.5
1019.8,29370
1019.4,29825
1019,30465
1018.6,29272.5
1018.2,29517.5
1017.8,29495
1017.4,29465
1017,29350
1016.6,29630
1016.2,29682.5
1015.8,29067.5
1015.4,30042.5
1015,29887.5
1014.6,29747.5
1014.2,29892.5
1013.8,29757.5
1013.4,29640
1013,29602.5
1012.6,30237.5
1012.2,29715
1011.8,29955
1011.4,30327.5
1011,30265
1010.6,30172.5
1010.2,29687.5
1009.8,30670
1009.4,30330
1009,30732.5
1008.6,29805
1008.2,29927.5
1007.8,30072.5
1007.4,30330
1007,30475
1006.6,30425
1006.2,29785
1005.8,30820
1005.4,30742.5
1005,30737.5
1004.6,30405
1004.2,30252.5
1003.8,30400
1003.4,30940
1003,30562.5
1002.6,31390
1002.2,30695
1001.8,31062.5
1001.4,31350
1001,31127.5
1000.6,31052.5
1000.2,31142.5
999.8,31307.5
999.4,31090
999,31002.5
998.6,31047.5
998.2,30910
997.8,30975
997.4,31090
997,31182.5
996.6,31182.5
996.2,31245
995.8,31062.5
995.4,30740
995,31287.5
994.6,31222.5
994.2,30387.5
993.8,30922.5
993.4,30732.5
993,30762.5
992.6,30260
992.2,29985
991.8,30310
991.4,30167.5
991,30570
990.6,30397.5
990.2,30342.5
989.8,30415
989.4,29882.5
989,30400
988.6,30350
988.2,30640
987.8,29892.5
987.4,30447.5
987,30525
986.6,30525
986.2,29932.5
985.8,30567.5
985.4,30460
985,30937.5
984.6,30835
984.2,30795
983.8,30587.5
983.4,30717.5
983,31337.5
982.6,30655
982.2,30960
981.8,30975
981.4,31407.5
981,31612.5
980.6,31565
980.2,32582.5
979.8,32167.5
979.4,31937.5
979,32387.5
978.6,32487.5
978.2,32770
977.8,32302.5
977.4,32805
977,32615
976.6,32565
976.2,32957.5
975.8,32965
975.4,32547.5
975,32190
974.6,31997.5
974.2,32057.5
973.8,31797.5
973.4,32095
973,31720
972.6,31150
972.2,31610
971.8,31137.5
971.4,30707.5
971,30792.5
970.6,30310
970.2,30102.5
969.8,30340
969.4,29832.5
969,29567.5
968.6,29215
968.2,29277.5
967.8,28622.5
967.4,28595
967,28650
966.6,28612.5
966.2,28457.5
965.8,28510
965.4,28632.5
965,28982.5
964.6,28487.5
964.2,28887.5
963.8,28357.5
963.4,29085
963,29562.5
962.6,29960
962.2,30035
961.8,29895
961.4,30077.5
961,29252.5
960.6,29397.5
960.2,28665
959.8,28795
959.4,28295
959,27855
958.6,28707.5
958.2,28005
957.8,28195
957.4,28335
957,27952.5
956.6,28490
956.2,28642.5
955.8,28272.5
955.4,28240
955,28797.5
954.6,29535
954.2,30297.5
953.8,30035
953.4,30547.5
953,29982.5
952.6,29822.5
952.2,29927.5
951.8,30582.5
951.4,31032.5
951,30702.5
950.6,29657.5
950.2,28150
949.8,27287.5
949.4,26807.5
949,26747.5
948.6,26592.5
948.2,26512.5
947.8,26195
947.4,26207.5
947,26117.5
946.6,26152.5
946.2,25692.5
945.8,25760
945.4,26275
945,26472.5
944.6,26770
944.2,27025
943.8,27695
943.4,27970
943,27890
942.6,27960
942.2,27497.5
941.8,27715
941.4,27592.5
941,27290
940.6,26922.5
940.2,27450
939.8,27105
939.4,26652.5
939,26277.5
938.6,26417.5
938.2,26005
937.8,26195
937.4,25930
937,26032.5
936.6,26185
936.2,26030
935.8,26940
935.4,27617.5
935,28105
934.6,29487.5
934.2,29970
933.8,30110
933.4,30872.5
933,30710
932.6,30317.5
932.2,31642.5
931.8,33812.5
931.4,35267.5
931,33200
930.6,29412.5
930.2,26762.5
929.8,25270
929.4,24762.5
929,24350
928.6,24455
928.2,23947.5
927.8,24272.5
927.4,23672.5
927,23822.5
926.6,23805
926.2,23675
925.8,23957.5
925.4,23715
925,23620
924.6,23610
924.2,23397.5
923.8,23852.5
923.4,24130
923,24217.5
922.6,24037.5
922.2,23357.5
921.8,23802.5
921.4,23835
921,24107.5
920.6,23955
920.2,24012.5
919.8,23980
919.4,23772.5
919,24270
918.6,23910
918.2,24232.5
917.8,23705
917.4,23835
917,23907.5
916.6,23830
916.2,24317.5
915.8,24407.5
915.4,24657.5
915,23712.5
914.6,24550
914.2,24295
913.8,23760
913.4,24175
913,24227.5
912.6,24422.5
912.2,24485
911.8,24122.5
911.4,24975
911,24255
910.6,24427.5
910.2,24555
909.8,24642.5
909.4,24517.5
909,24425
908.6,24155
908.2,24655
907.8,24627.5
907.4,24820
907,24752.5
906.6,24815
906.2,24347.5
905.8,24625
905.4,24615
905,24725
904.6,24255
904.2,24957.5
903.8,24517.5
903.4,25205
903,24855
902.6,25185
902.2,24385
901.8,24677.5
901.4,25052.5
901,25197.5
900.6,25022.5
900.2,24810
899.8,24585
899.4,25115
899,24815
898.6,25295
898.2,25077.5
897.8,25425
897.4,24782.5
897,25412.5
896.6,24905
896.2,25020
895.8,24962.5
895.4,24955
895,25480
894.6,24770
894.2,25352.5
893.8,25095
893.4,25285
893,25682.5
892.6,25902.5
892.2,25565
891.8,25492.5
891.4,25855
891,25517.5
890.6,24890
890.2,25122.5
889.8,25285
889.4,25152.5
889,25745
888.6,25882.5
888.2,25985
887.8,25532.5
887.4,25972.5
887,25752.5
886.6,25760
886.2,25592.5
885.8,25705
885.4,25842.5
885,25692.5
884.6,25815
884.2,25885
883.8,26245
883.4,26610
883,26167.5
882.6,26252.5
882.2,26717.5
881.8,26147.5
881.4,26530
881,26377.5
880.6,26435
880.2,26627.5
879.8,26447.5
879.4,26587.5
879,26295
878.6,26617.5
878.2,26852.5
877.8,26310
877.4,26212.5
877,26367.5
876.6,26712.5
876.2,26310
875.8,26440
875.4,26075
875,26512.5
874.6,26490
874.2,26280
873.8,26612.5
873.4,26227.5
873,26810
872.6,26610
872.2,26272.5
871.8,26232.5
871.4,26472.5
871,26687.5
870.6,26902.5
870.2,26520
869.8,26390
869.4,26210
869,26757.5
868.6,26555
868.2,26840
867.8,26395
867.4,27137.5
867,26705
866.6,26785
866.2,26722.5
865.8,27357.5
865.4,27475
865,27777.5
864.6,27150
864.2,27580
863.8,27527.5
863.4,27837.5
863,28292.5
862.6,28720
862.2,28010
861.8,28647.5
861.4,28207.5
861,28447.5
860.6,28847.5
860.2,28320
859.8,28787.5
859.4,28465
859,28497.5
858.6,28535
858.2,28197.5
857.8,28527.5
857.4,28167.5
857,28075
856.6,28087.5
856.2,28260
855.8,28235
855.4,28132.5
855,28252.5
854.6,27965
854.2,27865
853.8,27920
853.4,27822.5
853,27597.5
852.6,28170
852.2,27797.5
851.8,27605
851.4,27530
851,27755
850.6,27885
850.2,27857.5
849.8,27355
849.4,27702.5
849,27307.5
848.6,27275
848.2,27007.5
847.8,27357.5
847.4,27322.5
847,27442.5
846.6,27132.5
846.2,26980
845.8,27452.5
845.4,27277.5
845,27225
844.6,27002.5
844.2,26615
843.8,26850
843.4,27047.5
843,27427.5
842.6,27062.5
842.2,27460
841.8,27277.5
841.4,27167.5
841,27787.5
840.6,27605
840.2,27917.5
839.8,27247.5
839.4,27630
839,27695
838.6,28135
838.2,27902.5
837.8,28667.5
837.4,29390
837,29817.5
836.6,30452.5
836.2,30775
835.8,31995
835.4,32317.5
835,32180
834.6,32875
834.2,33170
833.8,33932.5
833.4,33790
833,33920
832.6,33840
832.2,33112.5
831.8,32535
831.4,31357.5
831,31092.5
830.6,31507.5
830.2,30460
829.8,30252.5
829.4,29547.5
829,29895
828.6,29542.5
828.2,29320
827.8,29152.5
827.4,28785
827,28557.5
826.6,28867.5
826.2,28357.5
825.8,28067.5
825.4,27742.5
825,27620
824.6,27530
824.2,27302.5
823.8,26457.5
823.4,25342.5
823,25802.5
822.6,25452.5
822.2,25850
821.8,25242.5
821.4,24885
821,24705
820.6,24732.5
820.2,25007.5
819.8,25100
819.4,25257.5
819,25315
818.6,25487.5
818.2,25170
817.8,24902.5
817.4,24872.5
817,24420
816.6,25107.5
816.2,25092.5
815.8,24945
815.4,25152.5
815,24920
814.6,25142.5
814.2,24707.5
813.8,24780
813.4,25162.5
813,24747.5
812.6,25062.5
812.2,25175
811.8,25282.5
811.4,24977.5
811,25300
810.6,24875
810.2,24877.5
809.8,24645
809.4,25120
809,25250
808.6,25337.5
808.2,25547.5
807.8,25025
807.4,24940
807,24732.5
806.6,25377.5
806.2,25050
805.8,24705
805.4,25242.5
805,25030
804.6,25472.5
804.2,25150
803.8,25227.5
803.4,25297.5
803,25527.5
802.6,25080
802.2,25050
801.8,24915
801.4,25310
801,25212.5
800.6,25150
800.2,24800
799.8,25040
799.4,25062.5
799,24995
798.6,25702.5
798.2,25422.5
797.8,25495
797.4,25440
797,25392.5
796.6,25132.5
796.2,25842.5
795.8,25527.5
795.4,25830
795,25860
794.6,26005
794.2,25520
793.8,25355
793.4,25922.5
793,25410
792.6,26275
792.2,25840
791.8,25810
791.4,25802.5
791,25497.5
790.6,25902.5
790.2,25797.5
789.8,25647.5
789.4,25767.5
789,25892.5
788.6,25490
788.2,25825
787.8,25815
787.4,25885
787,26052.5
786.6,26295
786.2,26217.5
785.8,26105
785.4,26380
785,26437.5
784.6,26397.5
784.2,26072.5
783.8,26115
783.4,26132.5
783,26125
782.6,26080
782.2,26255
781.8,26620
781.4,26330
781,26312.5
780.6,26547.5
780.2,26160
779.8,26415
779.4,26532.5
779,26767.5
778.6,26592.5
778.2,26075
777.8,26532.5
777.4,26295
777,26372.5
776.6,26655
776.2,26672.5
775.8,26442.5
775.4,26412.5
775,26415
774.6,26940
774.2,26652.5
773.8,26500
773.4,26795
773,27072.5
772.6,26492.5
772.2,26857.5
771.8,26815
771.4,26650
771,26965
770.6,26817.5
770.2,26550
769.8,26512.5
769.4,26725
769,26757.5
768.6,26737.5
768.2,27167.5
767.8,27190
767.4,26165
767,26632.5
766.6,26397.5
766.2,26912.5
765.8,27150
765.4,26560
765,27005
764.6,26650
764.2,26645
763.8,26522.5
763.4,26955
763,26940
762.6,27067.5
762.2,26925
761.8,27257.5
761.4,26902.5
761,27022.5
760.6,27020
760.2,27235
759.8,27072.5
759.4,27117.5
759,26575
758.6,27277.5
758.2,27690
757.8,27177.5
757.4,27662.5
757,27520
756.6,27102.5
756.2,27585
755.8,27490
755.4,27175
755,27152.5
754.6,27070
754.2,27420
753.8,27092.5
753.4,27152.5
753,27410
752.6,27250
752.2,27215
751.8,27320
751.4,27400
751,27700
750.6,27287.5
750.2,27180
749.8,27085
749.4,27182.5
749,26910
748.6,27547.5
748.2,27112.5
747.8,26945
747.4,26822.5
747,27655
746.6,27595
746.2,27292.5
745.8,27250
745.4,27480
745,27472.5
744.6,27647.5
744.2,27932.5
743.8,27190
743.4,27432.5
743,27362.5
742.6,27237.5
742.2,27320
741.8,27352.5
741.4,27807.5
741,27230
740.6,27117.5
740.2,27815
739.8,27187.5
739.4,27507.5
739,28282.5
738.6,27342.5
738.2,27767.5
737.8,27787.5
737.4,27520
737,27145
736.6,27562.5
736.2,27665
735.8,27732.5
735.4,27600
735,27382.5
734.6,27885
734.2,27597.5
733.8,27725
733.4,28072.5
733,27365
732.6,27485
732.2,27435
731.8,27395
731.4,26915
731,27537.5
730.6,27440
730.2,27502.5
729.8,27090
729.4,27615
729,27325
728.6,27550
728.2,27330
727.8,27047.5
727.4,27517.5
727,27565
726.6,27420
726.2,26750
725.8,28057.5
725.4,27110
725,27480
724.6,27612.5
724.2,27667.5
723.8,27700
723.4,27247.5
723,28087.5
722.6,27932.5
722.2,27812.5
721.8,28137.5
721.4,28127.5
721,28190
720.6,28067.5
720.2,28885
719.8,28615
719.4,28547.5
719,28627.5
718.6,28880
718.2,28945
717.8,29445
717.4,29090
717,29225
716.6,29292.5
716.2,28622.5
715.8,29007.5
715.4,28475
715,28435
714.6,28985
714.2,28637.5
713.8,28675
713.4,28547.5
713,27872.5
712.6,28870
712.2,28627.5
711.8,28312.5
711.4,28185
711,28240
710.6,28335
710.2,27610
709.8,27297.5
709.4,27167.5
709,27250
708.6,27387.5
708.2,27285
707.8,27510
707.4,27115
707,27485
706.6,26847.5
706.2,27272.5
705.8,26207.5
705.4,26367.5
705,25915
704.6,26030
704.2,25052.5
703.8,25480
703.4,25045
703,25077.5
702.6,25140
702.2,25170
701.8,25675
701.4,25227.5
701,25120
700.6,24492.5
700.2,24475
699.8,23655
699.4,23812.5
699,23707.5
698.6,23520
698.2,23415
697.8,23117.5
697.4,22645
697,22590
696.6,22475
696.2,22685
695.8,21960
695.4,22000
695,22127.5
694.6,21725
694.2,21797.5
693.8,21755
693.4,21405
693,21355
692.6,21612.5
692.2,21585
691.8,21990
691.4,22452.5
691,23050
690.6,25135
690.2,27727.5
689.8,33815
689.4,45045
689,62327.5
688.6,81872.5
688.2,94780
687.8,94415
687.4,79365
687,57740
686.6,39877.5
686.2,30122.5
685.8,25567.5
685.4,24122.5
685,22772.5
684.6,22437.5
684.2,22330
683.8,21262.5
683.4,21267.5
683,20912.5
682.6,21065
682.2,20970
681.8,20357.5
681.4,20007.5
681,20552.5
680.6,20020
680.2,20677.5
679.8,20055
679.4,20652.5
679,20295
678.6,19805
678.2,19830
677.8,20055
677.4,20050
677,20287.5
676.6,20147.5
676.2,20322.5
675.8,19927.5
675.4,20095
675,20182.5
674.6,20537.5
674.2,20000
673.8,19915
673.4,20240
673,19820
672.6,20242.5
672.2,20345
671.8,20010
671.4,20232.5
671,19877.5
670.6,20322.5
670.2,20257.5
669.8,20255
669.4,20080
669,20325
668.6,20532.5
668.2,19972.5
667.8,20215
667.4,20317.5
667,19827.5
666.6,20170
666.2,19537.5
665.8,20290
665.4,19982.5
665,20555
664.6,20557.5
664.2,20320
663.8,20167.5
663.4,20040
663,19620
662.6,20430
662.2,19887.5
661.8,19942.5
661.4,20265
661,20275
660.6,20467.5
660.2,20135
659.8,20447.5
659.4,20170
659,20137.5
658.6,20225
658.2,20242.5
657.8,20615
657.4,20802.5
657,20142.5
656.6,20585
656.2,20030
655.8,20380
655.4,19920
655,20322.5
654.6,19992.5
654.2,20222.5
653.8,20287.5
653.4,20017.5
653,20322.5
652.6,19902.5
652.2,20157.5
651.8,20092.5
651.4,20842.5
651,20357.5
650.6,20690
650.2,21010
649.8,20767.5
649.4,21450
649,21097.5
648.6,21072.5
648.2,21230
647.8,21152.5
647.4,20810
647,20840
646.6,20402.5
646.2,19960
645.8,20112.5
645.4,19785
645,19695
644.6,20087.5
644.2,19932.5
643.8,19240
643.4,19645
643,19837.5
642.6,19392.5
642.2,19640
641.8,19970
641.4,20027.5
641,19620
640.6,20117.5
640.2,19622.5
639.8,19802.5
639.4,19417.5
639,19812.5
638.6,19022.5
638.2,19112.5
637.8,18742.5
637.4,19490
637,18420
636.6,19117.5
636.2,18790
635.8,18797.5
635.4,18482.5
635,18395
634.6,18225
634.2,18152.5
633.8,18245
633.4,18510
633,18212.5
632.6,18515
632.2,18507.5
631.8,18645
631.4,18017.5
631,18385
630.6,18235
630.2,18220
629.8,18160
629.4,18200
629,18090
628.6,18582.5
628.2,18550
627.8,18265
627.4,17992.5
627,17885
626.6,17955
626.2,17817.5
625.8,17887.5
625.4,17960
625,18032.5
624.6,17515
624.2,17892.5
623.8,17752.5
623.4,18002.5
623,17917.5
622.6,18170
622.2,17942.5
621.8,17672.5
621.4,17907.5
621,18080
620.6,17992.5
620.2,17657.5
619.8,17757.5
619.4,18040
619,17685
618.6,17710
618.2,18090
617.8,17497.5
617.4,17645
617,17690
616.6,17640
616.2,17887.5
615.8,17452.5
615.4,17707.5
615,17670
614.6,17565
614.2,17225
613.8,17877.5
613.4,18102.5
613,17450
612.6,17552.5
612.2,17542.5
611.8,17547.5
611.4,17370
611,17407.5
610.6,17792.5
610.2,17915
609.8,17522.5
609.4,17670
609,17690
608.6,17450
608.2,17915
607.8,17587.5
607.4,17222.5
607,17827.5
606.6,17590
606.2,17980
605.8,17502.5
605.4,17400
605,18012.5
604.6,17932.5
604.2,17450
603.8,17952.5
603.4,17682.5
603,18112.5
602.6,17822.5
602.2,17477.5
601.8,17720
601.4,18232.5
601,17767.5
600.6,18012.5
600.2,17845
599.8,17690
599.4,18127.5
599,18182.5
598.6,18237.5
598.2,17720
597.8,18172.5
597.4,18312.5
597,18107.5
596.6,18047.5
596.2,17872.5
595.8,17902.5
595.4,17535
595,18200
594.6,17762.5
594.2,18372.5
593.8,18045
593.4,17852.5
593,18057.5
592.6,17917.5
592.2,18370
591.8,18382.5
591.4,17900
591,18272.5
590.6,18457.5
590.2,18250
589.8,18162.5
589.4,17992.5
589,17527.5
588.6,18330
588.2,18007.5
587.8,17805
587.4,17565
587,18002.5
586.6,17257.5
586.2,18102.5
585.8,17977.5
585.4,17690
585,18005
584.6,17497.5
584.2,17677.5
583.8,17655
583.4,17765
583,17765
582.6,17435
582.2,17450
581.8,17845
581.4,17770
581,17390
580.6,17090
580.2,17470
579.8,17735
579.4,17537.5
579,18065
578.6,17427.5
578.2,17805
577.8,17695
577.4,17747.5
577,18015
576.6,17732.5
576.2,17657.5
575.8,17645
575.4,18135
575,18402.5
574.6,18082.5
574.2,18512.5
573.8,18587.5
573.4,18392.5
573,18390
572.6,18625
572.2,18597.5
571.8,18865
571.4,19165
571,19067.5
570.6,19612.5
570.2,19935
569.8,20897.5
569.4,21030
569,21355
568.6,21077.5
568.2,20295
567.8,20335
567.4,19312.5
567,18217.5
566.6,17985
566.2,17587.5
565.8,16965
565.4,16910
565,16675
564.6,16100
564.2,16397.5
563.8,15777.5
563.4,15252.5
563,15475
562.6,15180
562.2,15312.5
561.8,15017.5
561.4,15267.5
561,14995
560.6,15177.5
560.2,15227.5
559.8,14825
559.4,15152.5
559,14952.5
558.6,14972.5
558.2,15240
557.8,15105
557.4,15527.5
557,15150
556.6,15007.5
556.2,15370
555.8,15350
555.4,16002.5
555,16047.5
554.6,15902.5
554.2,15655
553.8,15852.5
553.4,16035
553,15830
552.6,15515
552.2,15702.5
551.8,15910
551.4,15685
551,15992.5
550.6,15845
550.2,15910
549.8,15445
549.4,15772.5
549,15472.5
548.6,15145
548.2,14950
547.8,14545
547.4,13842.5
547,13930
546.6,13957.5
546.2,13607.5
545.8,13090
545.4,12570
545,12342.5
544.6,12215
544.2,11982.5
543.8,11662.5
543.4,11382.5
543,11275
542.6,10802.5
542.2,10865
541.8,10637.5
541.4,10627.5
541,10605
540.6,10450
540.2,10162.5
539.8,9972.5
539.4,9215
539,9397.5
538.6,8995
538.2,8970
537.8,8815
537.4,8622.5
537,8637.5
536.6,8997.5
536.2,9010
535.8,9282.5
535.4,9447.5
535,9622.5
534.6,10052.5
534.2,11070
533.8,12117.5
533.4,15695
533,23302.5
532.6,35262.5
532.2,49192.5
531.8,57080
531.4,52930
531,41177.5
530.6,31752.5
530.2,26080
529.8,21597.5
529.4,18137.5
529,14460
528.6,11967.5
528.2,10227.5
527.8,9235
527.4,9302.5
527,8712.5
526.6,8490
526.2,8197.5
525.8,8272.5
525.4,8037.5
525,8192.5
524.6,8080
524.2,8232.5
523.8,8217.5
523.4,8097.5
523,7757.5
522.6,7877.5
522.2,7832.5
521.8,7925
521.4,7840
521,7675
520.6,7850
520.2,7575
519.8,7702.5
519.4,7865
519,8080
518.6,7670
518.2,7777.5
517.8,7712.5
517.4,7672.5
517,7912.5
516.6,7745
516.2,7710
515.8,7665
515.4,8040
515,8160
514.6,7725
514.2,7737.5
513.8,7745
513.4,8017.5
513,7757.5
512.6,7992.5
512.2,7912.5
511.8,7795
511.4,7945
511,7847.5
510.6,7942.5
510.2,7977.5
509.8,7960
509.4,7882.5
509,8040
508.6,7780
508.2,8010
507.8,8085
507.4,7847.5
507,7977.5
506.6,7945
506.2,7847.5
505.8,8325
505.4,7917.5
505,7930
504.6,7857.5
504.2,7870
503.8,7985
503.4,7920
503,8125
502.6,7807.5
502.2,7995
501.8,7687.5
501.4,8075
501,8162.5
500.6,7940
500.2,8020
499.8,8035
499.4,8222.5
499,8087.5
498.6,8137.5
498.2,8040
497.8,7937.5
497.4,7952.5
497,8070
496.6,8240
496.2,8102.5
495.8,8162.5
495.4,8157.5
495,8282.5
494.6,8037.5
494.2,8082.5
493.8,7870
493.4,8250
493,8317.5
492.6,8120
492.2,8165
491.8,8327.5
491.4,8170
491,8170
490.6,8340
490.2,8347.5
489.8,8225
489.4,8215
489,7882.5
488.6,8250
488.2,8267.5
487.8,8125
487.4,8185
487,8170
486.6,8212.5
486.2,8017.5
485.8,8097.5
485.4,8045
485,8345
484.6,8287.5
484.2,8105
483.8,8172.5
483.4,8290
483,8585
482.6,8452.5
482.2,8147.5
481.8,8335
481.4,8527.5
481,8317.5
480.6,8535
480.2,8145
479.8,8240
479.4,8500
479,8447.5
478.6,8347.5
478.2,8365
477.8,8487.5
477.4,8352.5
477,8382.5
476.6,8417.5
476.2,8220
475.8,8422.5
475.4,8430
475,8692.5
474.6,8400
474.2,8200
473.8,7987.5
473.4,8452.5
473,8317.5
472.6,8487.5
472.2,8547.5
471.8,8447.5
471.4,8395
471,8542.5
470.6,8487.5
470.2,8510
469.8,8347.5
469.4,8547.5
469,8515
468.6,8315
468.2,8515
467.8,8522.5
467.4,8477.5
467,8420
466.6,8420
466.2,8432.5
465.8,8562.5
465.4,8612.5
465,8382.5
464.6,8592.5
464.2,8505
463.8,8670
463.4,8600
463,8265
462.6,8640
462.2,8612.5
461.8,8505
461.4,8895
461,8372.5
460.6,8410
460.2,8735
459.8,8375
459.4,8822.5
459,8637.5
458.6,8690
458.2,8885
457.8,8802.5
457.4,8662.5
457,8605
456.6,8472.5
456.2,8607.5
455.8,8745
455.4,8550
455,8725
454.6,8717.5
454.2,8587.5
453.8,8567.5
453.4,8815
453,8787.5
452.6,8745
452.2,8677.5
451.8,8600
451.4,9015
451,8850
450.6,8987.5
450.2,8680
449.8,8975
449.4,9090
449,9007.5
448.6,8737.5
448.2,8652.5
447.8,8825
447.4,8917.5
447,8762.5
446.6,8805
446.2,9027.5
445.8,8672.5
445.4,8647.5
445,8897.5
444.6,8880
444.2,8900
443.8,8947.5
443.4,8857.5
443,9012.5
442.6,9135
442.2,9082.5
441.8,9155
441.4,8640
441,8952.5
440.6,8835
440.2,9180
439.8,8932.5
439.4,8970
439,8960
438.6,8802.5
438.2,9290
437.8,9002.5
437.4,9230
437,9170
436.6,9057.5
436.2,9047.5
435.8,9337.5
435.4,9295
435,9092.5
434.6,9240
434.2,9282.5
433.8,8787.5
433.4,9195
433,8950
432.6,8955
432.2,9025
431.8,9095
431.4,9167.5
431,9402.5
430.6,9137.5
430.2,9045
429.8,9285
429.4,9120
429,9077.5
428.6,9077.5
428.2,9167.5
427.8,9355
427.4,8967.5
427,9077.5
426.6,8875
426.2,9650
425.8,9260
425.4,9285
425,9282.5
424.6,9190
424.2,9375
423.8,9530
423.4,8982.5
423,9252.5
422.6,9282.5
422.2,9545
421.8,9067.5
421.4,9280
421,9117.5
420.6,9415
420.2,9340
419.8,9487.5
419.4,9257.5
419,9472.5
418.6,9515
418.2,9270
417.8,9252.5
417.4,9395
417,9307.5
416.6,9490
416.2,9237.5
415.8,9535
415.4,9230
415,9017.5
414.6,8910
414.2,8977.5
413.8,8917.5
413.4,8597.5
413,9137.5
412.6,8950
412.2,8880
411.8,8995
411.4,8837.5
411,8852.5
410.6,8705
410.2,9042.5
409.8,8617.5
409.4,8270
409,8500
408.6,8557.5
408.2,8502.5
407.8,8712.5
407.4,8370
407,8705
406.6,8380
406.2,8372.5
405.8,8440
405.4,8310
405,8732.5
404.6,8477.5
404.2,8575
403.8,8840
403.4,9522.5
403,10650
402.6,12515
402.2,15205
401.8,16177.5
401.4,15005
401,12537.5
400.6,10552.5
400.2,10160
399.8,10790
399.4,13157.5
399,15492.5
398.6,16007.5
398.2,14950
397.8,11897.5
397.4,9787.5
397,9280
396.6,8950
396.2,8692.5
395.8,8692.5
395.4,8830
395,8745
394.6,8517.5
394.2,8360
393.8,8490
393.4,8745
393,8622.5
392.6,8477.5
392.2,8410
391.8,8545
391.4,8515
391,8442.5
390.6,8515
390.2,8495
389.8,8477.5
389.4,8572.5
389,8697.5
388.6,8705
388.2,8627.5
387.8,8730
387.4,8627.5
387,8737.5
386.6,8817.5
386.2,8482.5
385.8,8615
385.4,8617.5
385,8710
384.6,8412.5
384.2,8542.5
383.8,8540
383.4,8707.5
383,8590
382.6,8860
382.2,8712.5
381.8,8645
381.4,9015
381,8785
380.6,8832.5
380.2,8672.5
379.8,8897.5
379.4,8820
379,8625
378.6,8812.5
378.2,8840
377.8,8925
377.4,8875
377,8960
376.6,8845
376.2,8892.5
375.8,8972.5
375.4,8860
375,8950
374.6,9017.5
374.2,9007.5
373.8,8860
373.4,9045
373,9000
372.6,9257.5
372.2,9012.5
371.8,8652.5
371.4,9155
371,8862.5
370.6,9012.5
370.2,8997.5
369.8,9137.5
369.4,9057.5
369,9120
368.6,9002.5
368.2,8827.5
367.8,8665
367.4,9040
367,8990
366.6,9295
366.2,9132.5
365.8,9017.5
365.4,8762.5
365,8902.5
364.6,9197.5
364.2,9287.5
363.8,9197.5
363.4,9247.5
363,9322.5
362.6,9380
362.2,9192.5
361.8,9260
361.4,9050
361,9307.5
360.6,9275
360.2,9165
359.8,9155
359.4,9460
359,9205
358.6,9407.5
358.2,9375
357.8,9370
357.4,9520
357,9340
356.6,9372.5
356.2,9102.5
355.8,9420
355.4,9390
355,9367.5
354.6,9352.5
354.2,9480
353.8,9827.5
353.4,9502.5
353,9465
352.6,9470
352.2,9547.5
351.8,9312.5
351.4,9350
351,9795
350.6,9665
350.2,9502.5
349.8,9582.5
349.4,9635
349,9792.5
348.6,9647.5
348.2,9735
347.8,9542.5
347.4,9785
347,9710
346.6,9952.5
346.2,9735
345.8,9600
345.4,10022.5
345,9550
344.6,9607.5
344.2,9952.5
343.8,9732.5
343.4,9725
343,9607.5
342.6,10090
342.2,9795
341.8,9760
341.4,9862.5
341,9947.5
340.6,9775
340.2,9850
339.8,9882.5
339.4,9927.5
339,9980
338.6,9862.5
338.2,10082.5
337.8,9927.5
337.4,10077.5
337,9820
336.6,9900
336.2,9985
335.8,10010
335.4,10082.5
335,10030
334.6,9987.5
334.2,9827.5
333.8,10057.5
333.4,10072.5
333,9872.5
332.6,10055
332.2,10057.5
331.8,10075
331.4,9757.5
331,9987.5
330.6,10327.5
330.2,10095
329.8,10307.5
329.4,10435
329,10122.5
328.6,10302.5
328.2,10587.5
327.8,10222.5
327.4,10177.5
327,10280
326.6,10282.5
326.2,9990
325.8,10410
325.4,9992.5
325,10392.5
324.6,10542.5
324.2,10172.5
323.8,10505
323.4,10267.5
323,10410
322.6,10382.5
322.2,10475
321.8,10527.5
321.4,10972.5
321,10427.5
320.6,10612.5
320.2,10702.5
319.8,10550
319.4,10842.5
319,10642.5
318.6,10822.5
318.2,10757.5
317.8,10590
317.4,10932.5
317,10752.5
316.6,10860
316.2,10617.5
315.8,10812.5
315.4,10735
315,10965
314.6,11042.5
314.2,11252.5
313.8,11187.5
313.4,11220
313,11175
312.6,11002.5
312.2,11077.5
311.8,11297.5
311.4,11110
311,11057.5
310.6,11265
310.2,11180
309.8,10947.5
309.4,11180
309,11182.5
308.6,11212.5
308.2,11215
307.8,10945
307.4,11265
307,11045
306.6,10910
306.2,11150
305.8,11232.5
305.4,11325
305,11255
304.6,11160
304.2,10922.5
303.8,11115
303.4,10965
303,10587.5
302.6,10682.5
302.2,11052.5
301.8,10590
301.4,10905
301,10005
300.6,9960
300.2,9695
299.8,9437.5
299.4,9342.5
299,9162.5
298.6,9005
298.2,8925
297.8,8302.5
297.4,8580
297,8132.5
296.6,8090
296.2,7757.5
295.8,7745
295.4,7522.5
295,7360
294.6,7725
294.2,7712.5
293.8,8035
293.4,9047.5
293,11107.5
292.6,14142.5
292.2,16170
291.8,15060
291.4,11252.5
291,8547.5
290.6,7100
290.2,6812.5
289.8,6772.5
289.4,7110
289,7367.5
288.6,8125
288.2,9080
287.8,10592.5
287.4,11992.5
287,15875
286.6,22385
286.2,30817.5
285.8,36007.5
285.4,38417.5
285,40327.5
284.6,40982.5
284.2,37945
283.8,30945
283.4,21747.5
283,13992.5
282.6,9747.5
282.2,7910
281.8,7227.5
281.4,7087.5
281,6760
280.6,6775
280.2,6295
279.8,6212.5
279.4,6155
279,6160
278.6,6112.5
278.2,6022.5
277.8,5670
277.4,5942.5
277,6092.5
276.6,5802.5
276.2,5935
275.8,6067.5
275.4,5817.5
275,5777.5
274.6,5927.5
274.2,5915
273.8,5877.5
273.4,5982.5
273,5895
272.6,5885
272.2,6062.5
271.8,5965
271.4,5897.5
271,6042.5
270.6,5862.5
270.2,5642.5
269.8,6082.5
269.4,6012.5
269,6062.5
268.6,5922.5
268.2,5827.5
267.8,6312.5
267.4,5962.5
267,5987.5
266.6,6050
266.2,5827.5
265.8,6215
265.4,6135
265,6062.5
264.6,5942.5
264.2,5842.5
263.8,5975
263.4,5995
263,5955
262.6,5945
262.2,6065
261.8,6067.5
261.4,6177.5
261,6117.5
260.6,5980
260.2,5895
259.8,6010
259.4,6215
259,6042.5
258.6,6247.5
258.2,5982.5
257.8,6117.5
257.4,6150
257,6312.5
256.6,6197.5
256.2,6202.5
255.8,6287.5
255.4,6170
255,6290
254.6,6082.5
254.2,6220
253.8,6037.5
253.4,6337.5
253,6150
252.6,6370
252.2,6277.5
251.8,6230
251.4,6065
251,6112.5
250.6,6095
250.2,6160
249.8,6092.5
249.4,6275
249,6225
248.6,6260
248.2,6067.5
247.8,6270
247.4,6140
247,5980
246.6,5957.5
246.2,5990
245.8,5800
245.4,5802.5
245,5942.5
244.6,5780
244.2,5830
243.8,5725
243.4,5595
243,5715
242.6,5490
242.2,5717.5
241.8,5592.5
241.4,5407.5
241,5525
240.6,5465
240.2,5717.5
239.8,5467.5
239.4,5465
239,5762.5
238.6,5632.5
238.2,5772.5
237.8,5735
237.4,5560
237,5767.5
236.6,5840
236.2,6177.5
235.8,6315
235.4,6405
235,6755
234.6,7130
234.2,7917.5
233.8,9167.5
233.4,10325
233,11740
232.6,12580
232.2,12362.5
231.8,12067.5
231.4,10417.5
231,9412.5
230.6,8375
230.2,7410
229.8,6905
229.4,6542.5
229,6442.5
228.6,6295
228.2,6200
227.8,5910
227.4,5680
227,5700
226.6,5635
226.2,5747.5
225.8,5462.5
225.4,5687.5
225,5522.5
224.6,5345
224.2,5297.5
223.8,5715
223.4,5697.5
223,5555
222.6,5272.5
222.2,5552.5
221.8,5512.5
221.4,5327.5
221,5375
220.6,5377.5
220.2,5407.5
219.8,5390
219.4,5410
219,5570
218.6,5420
218.2,5317.5
217.8,5442.5
217.4,5740
217,5437.5
216.6,5507.5
216.2,5405
215.8,5640
215.4,5532.5
215,5522.5
214.6,5430
214.2,5267.5
213.8,5432.5
213.4,5425
213,5355
212.6,5230
212.2,5467.5
211.8,5442.5
211.4,5205
211,5595
210.6,5362.5
210.2,5487.5
209.8,5507.5
209.4,5492.5
209,5277.5
208.6,5520
208.2,5597.5
207.8,5272.5
207.4,5337.5
207,5417.5
206.6,5337.5
206.2,5410
205.8,5307.5
205.4,5520
205,5432.5
204.6,5487.5
204.2,5465
203.8,5280
203.4,5420
203,5475
202.6,5397.5
202.2,5327.5
201.8,5545
201.4,5597.5
201,5360
200.6,5352.5
200.2,5517.5
199.8,5575
199.4,5510
199,5665
198.6,5557.5
198.2,5690
197.8,5640
197.4,5725
197,5792.5
196.6,5512.5
196.2,5540
195.8,5512.5
195.4,5580
195,5720
194.6,5485
194.2,5677.5
193.8,5770
193.4,5545
193,5665
192.6,5657.5
192.2,5767.5
191.8,5710
191.4,5752.5
191,5825
190.6,5647.5
190.2,5680
189.8,5795
189.4,5855
189,5872.5
188.6,5732.5
188.2,5555
187.8,5602.5
187.4,5837.5
187,5560
186.6,5787.5
186.2,5637.5
185.8,5687.5
185.4,5507.5
185,5417.5
184.6,5372.5
184.2,5365
183.8,5342.5
183.4,5547.5
183,5592.5
182.6,5210
182.2,5277.5
181.8,5270
181.4,4982.5
181,4995
180.6,4865
180.2,4825
179.8,4757.5
179.4,4737.5
179,4732.5
178.6,4950
178.2,4750
177.8,4632.5
177.4,4690
177,4617.5
176.6,4742.5
176.2,4567.5
175.8,4687.5
175.4,4555
175,4507.5
174.6,4265
174.2,4450
173.8,4487.5
173.4,4387.5
173,4395
172.6,4247.5
172.2,4660
171.8,4692.5
171.4,4967.5
171,5335
170.6,6387.5
170.2,8055
169.8,11425
169.4,14472.5
169,16182.5
168.6,18542.5
168.2,19170
167.8,16215
167.4,10920
167,6770
166.6,5352.5
166.2,5132.5
165.8,4715
165.4,4737.5
165,4610
164.6,4575
164.2,4522.5
163.8,4375
163.4,4482.5
163,4377.5
162.6,4652.5
162.2,4292.5
161.8,4372.5
161.4,4212.5
161,4362.5
160.6,4110
160.2,4310
159.8,4280
159.4,4325
159,4315
158.6,4247.5
158.2,4247.5
157.8,4262.5
157.4,4185
157,4327.5
156.6,4310
156.2,4237.5
155.8,4297.5
155.4,4275
155,4387.5
154.6,4250
154.2,4305
153.8,4427.5
153.4,4430
153,4420
152.6,4577.5
152.2,4615
151.8,4592.5
151.4,4685
151,4620
150.6,4312.5
150.2,4430
149.8,4525
149.4,4365
149,4420
148.6,4445
148.2,4450
147.8,4370
147.4,4552.5
147,4375
146.6,4342.5
146.2,4475
145.8,4470
145.4,4530
145,4517.5
144.6,4292.5
144.2,4392.5
143.8,4355
143.4,4270
143,4347.5
142.6,4515
142.2,4485
141.8,4380
141.4,4280
141,4310
140.6,4290
140.2,4287.5
139.8,4340
139.4,4215
139,4392.5
138.6,4415
138.2,4257.5
137.8,4237.5
137.4,4125
137,4370
136.6,4297.5
136.2,4425
135.8,4282.5
135.4,4420
135,4447.5
134.6,4252.5
134.2,4315
133.8,4590
133.4,4362.5
133,4325
132.6,4370
132.2,4392.5
131.8,4482.5
131.4,4217.5
131,4412.5
130.6,4320
130.2,4347.5
129.8,4277.5
129.4,4395
129,4350
128.6,4547.5
128.2,4477.5
127.8,4175
127.4,4397.5
127,4487.5
126.6,4332.5
126.2,4417.5
125.8,4567.5
125.4,4595
125,4805
124.6,4597.5
124.2,4762.5
123.8,5022.5
123.4,4945
123,5080
122.6,5267.5
122.2,5232.5
121.8,5250
121.4,5180
121,5332.5
120.6,5065
120.2,4727.5
119.8,4440
119.4,4422.5
119,4240
118.6,4110
118.2,3955
117.8,3910
117.4,3900
117,4032.5
116.6,4082.5
116.2,4077.5
115.8,3667.5
115.4,3892.5
115,3980
114.6,3985
114.2,3902.5
113.8,3877.5
113.4,3742.5
113,3985
112.6,3987.5
112.2,3875
111.8,3977.5
111.4,3840
111,3837.5
110.6,3900
110.2,3865
109.8,3905
109.4,3842.5
109,3915
108.6,3747.5
108.2,3717.5
107.8,3847.5
107.4,3982.5
107,3637.5
106.6,3842.5
106.2,3932.5
105.8,4007.5
105.4,3732.5
105,3710
104.6,3665
104.2,3697.5
103.8,4065
103.4,4065
103,3810
102.6,4117.5
102.2,3912.5
101.8,3842.5
101.4,4057.5
101,4070
100.6,3975
100.2,4130
99.8,4060
99.4,3987.5
99,3887.5
98.6,3962.5
98.2,3772.5
97.8,3670
97.4,3862.5
97,3857.5
96.6,3845
96.2,3825
95.8,3927.5
95.4,3765
95,3712.5
94.6,3972.5
94.2,3932.5
93.8,3835
93.4,3797.5
93,3927.5
92.6,3982.5
92.2,3787.5
91.8,3970
91.4,3747.5
91,3885
90.6,3697.5
90.2,3642.5
89.8,3632.5
89.4,3437.5
89,3482.5
88.6,3452.5
88.2,3377.5
87.8,3490
87.4,3400
87,3475
86.6,3485
86.2,3345
85.8,3420
85.4,3545
85,3390
84.6,3362.5
84.2,3405
83.8,3482.5
83.4,3455
83,3577.5
82.6,3477.5
82.2,3477.5
81.8,3420
81.4,3552.5
81,3510
80.6,3617.5
80.2,3670
79.8,3965
79.4,4170
79,4117.5
78.6,4557.5
78.2,4755
77.8,5032.5
77.4,5277.5
77,5835
76.6,6050
76.2,6057.5
75.8,6072.5
75.4,5855
75,5957.5
74.6,5987.5
74.2,5765
73.8,5350
73.4,5002.5
73,4247.5
72.6,3605
72.2,3360
71.8,2972.5
71.4,2737.5
71,2682.5
70.6,2722.5
70.2,2492.5
69.8,2350
69.4,2430
69,2295
68.6,2380
68.2,2402.5
67.8,2202.5
67.4,2282.5
67,2220
66.6,2212.5
66.2,2220
65.8,2145
65.4,2107.5
65,2225
64.6,2205
64.2,2207.5
63.8,2100
63.4,2315
63,2200
62.6,2157.5
62.2,2087.5
61.8,2287.5
61.4,2062.5
61,2177.5
60.6,2127.5
60.2,2100
59.8,2245
59.4,2130
59,2190
58.6,2177.5
58.2,2300
57.8,2307.5
57.4,2270
57,2045
56.6,2042.5
56.2,2135
55.8,2232.5
55.4,2155
55,2190
54.6,2260
54.2,2252.5
53.8,2087.5
53.4,2200
53,2092.5
52.6,2145
52.2,2220
51.8,2132.5
51.4,2022.5
51,2220
50.6,2192.5
50.2,2257.5
49.8,2187.5
49.4,2130
49,2112.5
48.6,2180
48.2,2182.5
47.8,2130
47.4,2065
47,1965
46.6,2145
46.2,2035
45.8,2170
45.4,2072.5
45,2107.5
44.6,1935
44.2,2050
43.8,2202.5
43.4,2065
43,2000
42.6,1970
42.2,1995
41.8,2065
41.4,1912.5
41,2102.5
40.6,2075
40.2,2187.5
39.8,2045
39.4,2102.5
39,2232.5
38.6,2122.5
38.2,2232.5
37.8,2317.5
37.4,2432.5
37,2517.5
36.6,2700
36.2,2897.5
35.8,3287.5
35.4,3355
35,3287.5
34.6,3505
34.2,3530
33.8,3647.5
33.4,3837.5
33,3965
32.6,3785
32.2,3632.5
31.8,3225
31.4,3190
31,2755
30.6,2547.5
30.2,2310
29.8,2240
29.4,2362.5
29,2297.5
28.6,2242.5
28.2,2210
27.8,2162.5
27.4,2297.5
27,2097.5
26.6,2117.5
26.2,2160
25.8,2187.5
25.4,2182.5
25,2150
24.6,2272.5
24.2,2222.5
23.8,2230
23.4,2057.5
23,1902.5
22.6,1950
22.2,1787.5
21.8,1650
21.4,1742.5
21,1530
20.6,1520
20.2,1537.5
19.8,1652.5
19.4,1830
19,1885
18.6,2185
18.2,2250
17.8,2090
17.4,1955
17,1812.5
16.6,1890
16.2,1847.5
15.8,1835
15.4,1662.5
15,2050
14.6,2142.5
14.2,2157.5
13.8,1922.5
13.4,1700
13,1565
12.6,1577.5
12.2,1822.5
11.8,2047.5
11.4,2117.5
11,2222.5
10.6,2262.5
10.2,2522.5
9.8,2550
9.4,2330
9,1802.5
8.6,1440
8.2,1287.5
7.8,1145
7.4,1090
7,1112.5
6.6,1200
6.2,1362.5
5.8,1382.5
5.4,1400
5,1370
4.6,1472.5
4.2,1295
3.8,1370
3.4,1610
3,1980
2.6,2207.5
2.2,2295
1.8,1855
1.4,1360
1,1005
0.6,735
0.2,645
-0.2,452.5
-0.6,270
-1,195
-1.4,190
