,,,,,,
,,,,,,
Characteristic Energy eV,1486.6,Acquisition Time s,2.5,,,
BE_C 1s 3,CPS_C 1s 3,C 1s_1_C 1s 3,C 1s_2_C 1s 3,C 1s_3_C 1s 3,Background_C 1s 3,Envelope_C 1s 3
299.7,6103.2,6104.07,6103.23,6103.3,6103.2,6104.2
299.575,6102.8,6103.69,6102.83,6102.91,6102.8,6103.83
299.45,6176.4,6177.32,6176.43,6176.51,6176.4,6177.47
299.325,6058.8,6059.74,6058.83,6058.92,6058.8,6059.9
299.2,5968.8,5969.77,5968.84,5968.93,5968.8,5969.93
299.075,5992.4,5993.4,5992.44,5992.54,5992.4,5993.57
298.95,5990.8,5991.83,5990.84,5990.95,5990.8,5992.02
298.825,6002.8,6003.87,6002.84,6002.96,6002.8,6004.06
298.7,6048,6049.1,6048.04,6048.17,6048,6049.31
298.575,6036,6037.13,6036.04,6036.18,6036,6037.35
298.45,6009.2,6010.36,6009.25,6009.39,6009.2,6010.6
298.325,5926.8,5928,5926.85,5927.01,5926.8,5928.25
298.2,5882.4,5883.64,5882.45,5882.62,5882.4,5883.91
298.075,5942.8,5944.08,5942.85,5943.04,5942.8,5944.37
297.95,5926,5927.33,5926.06,5926.26,5926,5927.64
297.825,6026.8,6028.17,6026.86,6027.08,6026.8,6028.51
297.7,5841.2,5842.61,5841.26,5841.51,5841.2,5842.98
297.575,5986.4,5987.86,5986.47,5986.73,5986.4,5988.25
297.45,5891.2,5892.7,5891.27,5891.56,5891.2,5893.13
297.325,5845.6,5847.16,5845.67,5846,5845.6,5847.63
297.2,5941.2,5942.82,5941.28,5941.64,5941.2,5943.33
297.075,5891.6,5893.28,5891.68,5892.07,5891.6,5893.83
296.95,5849.2,5850.94,5849.29,5849.72,5849.2,5851.54
296.825,5811.2,5813,5811.29,5811.77,5811.2,5813.66
296.7,5799.6,5801.46,5799.7,5800.23,5799.6,5802.19
296.575,5720,5721.92,5720.1,5720.71,5720,5722.73
296.45,5748,5750,5748.11,5748.79,5748,5750.9
296.325,5816.8,5818.88,5816.91,5817.69,5816.8,5819.89
296.2,5744,5746.17,5744.12,5745.01,5744,5747.3
296.075,5685.2,5687.45,5685.33,5686.35,5685.2,5688.73
295.95,5686.4,5688.74,5686.54,5687.71,5686.4,5690.19
295.825,5702.4,5704.83,5702.55,5703.91,5702.4,5706.48
295.7,5647.6,5650.11,5647.76,5649.35,5647.6,5652.02
295.575,5613.6,5616.22,5613.77,5615.65,5613.6,5618.44
295.45,5656.4,5659.15,5656.58,5658.82,5656.4,5661.75
295.325,5542.4,5545.27,5542.59,5545.3,5542.4,5548.36
295.2,5676.8,5679.79,5677.01,5680.31,5676.8,5683.51
295.075,5671.6,5674.72,5671.83,5675.92,5671.6,5679.26
294.95,5541.6,5544.84,5541.85,5547.01,5541.6,5550.5
294.825,5644.8,5648.17,5645.06,5651.76,5644.8,5655.38
294.7,5520.8,5524.33,5521.08,5530.01,5520.8,5533.83
294.575,5561.6,5565.32,5561.91,5574.26,5561.6,5578.28
294.45,5542.8,5544.69,5541.12,5558.87,5540.78,5563.11
294.325,5518,5544.71,5540.98,5567.48,5540.62,5571.95
294.2,5639.2,5544.16,5540.27,5581.06,5539.87,5585.74
294.075,5656.8,5543.47,5539.43,5603.2,5538.99,5608.12
293.95,5675.6,5542.63,5538.45,5638.01,5537.96,5643.16
293.825,5709.6,5541.58,5537.2,5689.69,5536.67,5695.14
293.7,5724,5540.47,5535.85,5761.54,5535.26,5767.35
293.575,6013.6,5537.17,5532.32,5851.23,5531.65,5857.41
293.45,5896,5534.73,5529.65,5956.16,5528.91,5962.72
293.325,6081.2,5530.87,5525.58,6062.06,5524.75,6069.02
293.2,6102.8,5526.82,5521.33,6153.31,5520.39,6160.67
293.075,6212.4,5521.91,5516.25,6211.57,5515.18,6219.37
292.95,6276,5516.58,5510.67,6224.14,5509.45,6232.49
292.825,6199.2,5511.89,5505.66,6188.1,5504.25,6197.15
292.7,6124.4,5507.74,5501.21,6110.01,5499.58,6119.8
292.575,5998.4,5504.49,5497.73,6005.09,5495.82,6015.68
292.45,5920.8,5501.56,5494.88,5890.97,5492.62,5902.17
292.325,5933.6,5498.81,5492.01,5782.82,5489.29,5795.05
292.2,5670.8,5498.06,5491.22,5693.1,5487.93,5706.52
292.075,5575.6,5498.07,5491.34,5624.63,5487.27,5639.51
291.95,5442,5498.47,5492.08,5576.15,5486.93,5592.85
291.825,5522,5499.01,5493.35,5543.81,5486.67,5562.84
291.7,5496,5527.61,5523.3,5551.13,5514.39,5573.27
291.575,5525.2,5528.58,5526.61,5538.52,5514.38,5564.95
291.45,5470,5529.61,5531.59,5530.76,5514.35,5563.27
291.325,5505.6,5530.78,5539.19,5525.95,5514.34,5567.24
291.2,5608.8,5532.02,5550.52,5522.81,5514.28,5576.79
291.075,5591.6,5533.41,5567.17,5520.72,5514.22,5592.85
290.95,5645.6,5534.93,5590.7,5519.22,5514.13,5616.58
290.825,5590.8,5536.67,5622.64,5518.16,5514.08,5649.32
290.7,5756.8,5538.51,5663.5,5517.24,5513.91,5691.44
290.575,5753.2,5540.61,5712.76,5516.51,5513.74,5742.39
290.45,5823.2,5542.95,5767.83,5515.85,5513.53,5799.57
290.325,5874.8,5545.59,5824.19,5515.24,5513.28,5858.47
290.2,5907.2,5548.62,5875.7,5514.69,5513,5913
290.075,5987.2,5552.06,5915.66,5514.13,5512.67,5956.5
289.95,5878.8,5556.15,5938.26,5513.68,5512.42,5983.25
289.825,6015.2,5560.83,5939.91,5513.17,5512.07,5989.78
289.7,5975.2,5566.36,5920.32,5512.72,5511.75,5975.91
289.575,5929.2,5572.95,5882.56,5512.32,5511.46,5944.91
289.45,5871.6,5580.84,5832.12,5511.97,5511.2,5902.52
289.325,5926.4,5590.27,5775.61,5511.6,5510.92,5855.65
289.2,5855.2,5601.77,5719.44,5511.29,5510.68,5811.15
289.075,5698.8,5616.01,5668.58,5511.1,5510.55,5774.6
288.95,5732.4,5633.68,5625.75,5510.89,5510.39,5749.54
288.825,5766.8,5655.97,5591.97,5510.67,5510.21,5738.18
288.7,5774.4,5684.66,5566.71,5510.46,5510.03,5741.77
288.575,5724.8,5722.14,5548.73,5510.27,5509.88,5761.37
288.45,5744.8,5771.74,5536.32,5510.06,5509.72,5798.69
288.325,5913.2,5838.36,5527.84,5509.76,5509.44,5857.09
288.2,5852.8,5928.79,5522.19,5509.5,5509.2,5942.09
288.075,5999.2,6052.11,5518.27,5509.13,5508.86,6061.8
287.95,6179.2,6221.07,5515.42,5508.64,5508.39,6228.35
287.825,6413.6,6450.93,5513.15,5507.99,5507.76,6456.55
287.7,6732.8,6760.55,5511.15,5507.12,5506.91,6765.01
287.575,7063.6,7172.71,5509.24,5506.03,5505.82,7176.33
287.45,7555.6,7709.43,5507.2,5504.58,5504.4,7712.42
287.325,8251.6,8391.7,5504.82,5502.66,5502.49,8394.21
287.2,9136.4,9236.74,5501.93,5500.12,5499.96,9238.88
287.075,10160,10249.2,5498.4,5496.87,5496.72,10251
286.95,11261.2,11419.6,5494.15,5492.85,5492.7,11421.2
286.825,12648,12720.3,5488.98,5487.86,5487.73,12721.6
286.7,14116,14100.4,5482.82,5481.85,5481.72,14101.6
286.575,15558,15489.8,5475.67,5474.83,5474.71,15490.9
286.45,16821.2,16801.7,5467.67,5466.93,5466.82,16802.7
286.325,18146,17941.9,5458.75,5458.1,5458,17942.8
286.2,18970.4,18821.1,5449.27,5448.69,5448.59,18821.8
286.075,19584.8,19362.5,5439.36,5438.85,5438.76,19363.2
285.95,19564.8,19518.2,5429.47,5429.02,5428.93,19518.8
285.825,19252.8,19275.1,5419.8,5419.39,5419.31,19275.7
285.7,18677.2,18652.5,5410.53,5410.17,5410.09,18653
285.575,17552.4,17705,5402.04,5401.71,5401.64,17705.4
285.45,16409.6,16512.4,5394.35,5394.05,5393.98,16512.9
285.325,15047.6,15166.1,5387.6,5387.33,5387.26,15166.5
285.2,13367.2,13760.2,5382.02,5381.77,5381.71,13760.6
285.075,12166.8,12378.6,5377.27,5377.05,5376.99,12379
284.95,10982.8,11088.5,5373.35,5373.15,5373.09,11088.9
284.825,9841.2,9936.83,5370.23,5370.04,5369.98,9937.14
284.7,9142,8947.12,5367.58,5367.41,5367.36,8947.4
284.575,8348,8126.16,5365.49,5365.33,5365.28,8126.42
284.45,7862.8,7466.62,5363.74,5363.59,5363.54,7466.86
284.325,7342.8,6950.08,5362.35,5362.21,5362.17,6950.32
284.2,6967.6,6554.92,5361.22,5361.09,5361.05,6555.13
284.075,6662,6258.74,5360.3,5360.19,5360.14,6258.94
283.95,6409.6,6039.24,5359.56,5359.45,5359.41,6039.43
283.825,6302.4,5878,5358.9,5358.8,5358.76,5878.17
283.7,5973.6,5760.35,5358.46,5358.37,5358.33,5760.52
283.575,5801.2,5674.03,5358.15,5358.06,5358.02,5674.19
283.45,5663.2,5610.25,5357.93,5357.84,5357.81,5610.4
283.325,5594.8,5562.71,5357.75,5357.68,5357.64,5562.85
283.2,5610.4,5526.61,5357.57,5357.5,5357.47,5526.75
283.075,5540.8,5498.85,5357.44,5357.37,5357.34,5498.98
282.95,5349.6,5477.28,5357.43,5357.37,5357.34,5477.4
282.825,5404.4,5460.09,5357.39,5357.33,5357.3,5460.2
282.7,5340.8,5446.21,5357.37,5357.32,5357.29,5446.32
282.575,5318.8,5434.83,5357.34,5357.29,5357.26,5434.93
282.45,5497.6,5425.3,5357.24,5357.19,5357.17,5425.4
282.325,5331.2,5417.38,5357.22,5357.17,5357.15,5417.48
282.2,5450.4,5410.63,5357.15,5357.11,5357.08,5410.72
282.075,5332.8,5404.91,5357.13,5357.09,5357.07,5405
281.95,5340,5400,5357.12,5357.08,5357.06,5400.08
281.825,5412,5395.72,5357.07,5357.04,5357.02,5395.8
281.7,5366,5392.03,5357.07,5357.03,5357.01,5392.1
281.575,5323.2,5388.78,5357.04,5357.01,5356.99,5388.85
281.45,5404.8,5385.91,5357,5356.97,5356.95,5385.98
281.325,5304.4,5383.38,5356.97,5356.94,5356.92,5383.44
281.2,5429.2,5381.11,5356.91,5356.89,5356.87,5381.17
281.075,5388.4,5379.11,5356.89,5356.86,5356.85,5379.17
280.95,5299.6,5377.31,5356.85,5356.82,5356.81,5377.37
280.825,5348.4,5375.73,5356.84,5356.82,5356.8,5375.78
280.7,5422.4,5439.91,5422.44,5422.42,5422.4,5439.96
280.575,5368.4,5384.63,5368.44,5368.42,5368.4,5384.68
280.45,5405.6,5420.67,5405.64,5405.61,5405.6,5420.72
280.325,5346.4,5360.42,5346.43,5346.41,5346.4,5360.47
280.2,5344.8,5357.87,5344.83,5344.81,5344.8,5357.92
280.075,5340.8,5353,5340.83,5340.81,5340.8,5353.05
279.95,5352.4,5363.81,5352.43,5352.41,5352.4,5363.85
279.825,5389.2,5399.89,5389.23,5389.21,5389.2,5399.93
279.7,5342.4,5352.42,5342.43,5342.41,5342.4,5352.46
