,,,,,
,,,,,
Characteristic Energy eV,1486.6,Acquisition Time s,0.75,,
BE_Au 4f 1,CPS_Au 4f 1,Au 4f_1_Au 4f 1,Au 4f_2_Au 4f 1,Background_Au 4f 1,Envelope_Au 4f 1
95,9829.33,9829.33,9829.33,9829.33,9829.33
94.875,9664,9664,9664,9664,9664
94.75,9646.67,9646.67,9646.67,9646.67,9646.67
94.625,9606.67,9606.67,9606.67,9606.67,9606.67
94.5,9432,9432,9432,9432,9432
94.375,9546.67,9546.67,9546.67,9546.67,9546.67
94.25,9566.67,9566.67,9566.67,9566.67,9566.67
94.125,9502.67,9502.67,9502.67,9502.67,9502.67
94,9458.67,9458.67,9458.67,9458.67,9458.67
93.875,9413.33,9413.33,9413.33,9413.33,9413.33
93.75,9813.33,9813.33,9813.33,9813.33,9813.33
93.625,9556,9556,9556,9556,9556
93.5,9488,9488,9488,9488,9488
93.375,9470.67,9470.67,9470.67,9470.67,9470.67
93.25,9560,9560,9560.01,9560,9560.01
93.125,9185.33,9185.33,9185.34,9185.33,9185.34
93,9296,9296,9296.02,9296,9296.02
92.875,9108,9108,9108.03,9108,9108.03
92.75,9209.33,9209.33,9209.38,9209.33,9209.38
92.625,9138.67,9138.67,9138.75,9138.67,9138.75
92.5,9069.33,9134.43,9134.57,9134.43,9134.57
92.375,9196,9134.21,9134.43,9134.21,9134.43
92.25,8937.33,9133.5,9133.86,9133.5,9133.86
92.125,9002.67,9133.03,9133.61,9133.03,9133.61
92,9072,9132.81,9133.72,9132.81,9133.72
91.875,9153.33,9132.74,9134.16,9132.74,9134.16
91.75,9213.33,9132.45,9134.64,9132.45,9134.64
91.625,9256,9132,9135.37,9132,9135.37
91.5,9244,9131.6,9136.72,9131.6,9136.72
91.375,9386.67,9130.67,9138.38,9130.67,9138.38
91.25,9421.33,9129.62,9141.12,9129.62,9141.12
91.125,9512,9128.24,9145.24,9128.24,9145.24
91,9609.33,9126.5,9151.41,9126.5,9151.41
90.875,9741.33,9124.28,9160.45,9124.28,9160.45
90.75,9940,9121.33,9173.41,9121.33,9173.41
90.625,10080,9117.86,9192.27,9117.86,9192.27
90.5,10141.3,9114.16,9219.59,9114.16,9219.59
90.375,10165.3,9110.36,9258.54,9110.36,9258.54
90.25,10486.7,9105.39,9312.13,9105.39,9312.13
90.125,10280,9101.14,9387.61,9101.14,9387.61
90,10248,9096.99,9491.17,9096.99,9491.17
89.875,10418.7,9092.22,9631.08,9092.21,9631.08
89.75,10269.3,9087.96,9820.67,9087.96,9820.67
89.625,10465.3,9082.98,10074,9082.98,10074
89.5,10812,9076.74,10410.8,9076.73,10410.8
89.375,11213.3,9069.02,10858,9069,10858.1
89.25,11478.7,9060.32,11453.5,9060.29,11453.5
89.125,12261.3,9048.77,12243.7,9048.71,12243.8
89,13042.7,9034.36,13296.4,9034.27,13296.5
88.875,14532,9014.54,14705.9,9014.4,14706
88.75,16481.3,8987.63,16606.4,8987.4,16606.7
88.625,19749.3,8948.86,19187.1,8948.49,19187.5
88.5,23386.7,8896.89,22730,8896.28,22730.6
88.375,29012,8824.51,27653.2,8823.55,27654.2
88.25,37185.3,8722.52,34509.5,8721.01,34511
88.125,47008,8584.92,43970.7,8582.57,43973.1
88,59634.7,8401.61,56471.2,8397.99,56474.8
87.875,72376,8172.2,71054.2,8166.67,71059.7
87.75,82210.7,7907.32,83485.4,7898.95,83493.7
87.625,85922.7,7629.38,86983.1,7616.84,86995.6
87.5,81501.3,7368.32,78866.5,7349.7,78885.1
87.375,68897.3,7154.58,64400.1,7127.17,64427.6
87.25,53188,7000.62,49935.9,6960.63,49975.9
87.125,39021.3,6902.54,38280.7,6844.71,38338.5
87,28966.7,6847.67,29674.4,6764.73,29757.4
86.875,21898.7,6828.02,23476.1,6710.01,23594.1
86.75,17570.7,6837.28,19021.8,6670.74,19188.3
86.625,15313.3,6872.66,15799.1,6639.49,16032.3
86.5,13484,6939.02,13443.3,6614.74,13767.6
86.375,12334.7,7041.8,11701.1,6594.06,12148.9
86.25,11408,7190.71,10402.2,6576.66,11016.3
86.125,10604,7399.24,9429.74,6562.1,10266.9
86,10285.3,7683.9,8695.67,6548.63,9830.93
85.875,9914.67,8068.19,8140.11,6536.46,9671.84
85.75,9996,8581.61,7717.89,6523.95,9775.55
85.625,10213.3,9266.63,7396.2,6510.62,10152.2
85.5,10798.7,10177.6,7148.71,6495.11,10831.2
85.375,11721.3,11389.7,6955.88,6476.22,11869.4
85.25,13266.7,13007.7,6801.67,6451.66,13357.7
85.125,14938.7,15185.7,6674.75,6420.98,15439.4
85,18002.7,18131.8,6561.78,6379.1,18314.5
84.875,21553.3,22157,6454.76,6324.24,22287.5
84.75,27746.7,27716.5,6339.39,6246.78,27809.1
84.625,35360,35460.3,6206.7,6141.52,35525.5
84.5,47062.7,46221.5,6039.05,5993.56,46266.9
84.375,62256,60836.7,5821.62,5790.14,60868.2
84.25,79485.3,79275.1,5545.29,5523.68,79296.7
84.125,95778.7,98339.2,5212.05,5197.35,98353.9
84,105172,110088,4845.79,4835.88,110098
83.875,105408,106794,4478.87,4472.25,106800
83.75,93480,90549.6,4154.81,4150.43,90554
83.625,73889.3,70483.8,3901.15,3898.28,70486.6
83.5,53278.7,52870.7,3721.6,3719.74,52872.6
83.375,35940,39433.5,3604.44,3603.24,39434.7
83.25,24809.3,29677.3,3527.33,3526.57,29678.1
83.125,17498.7,22674.6,3476.53,3476.05,22675.1
83,13418.7,17629.9,3440.4,3440.1,17630.2
82.875,10573.3,13968.9,3414.49,3414.31,13969.1
82.75,8794.67,11277.3,3394.97,3394.85,11277.5
82.625,7376,9281.39,3380.53,3380.46,9281.46
82.5,6461.33,7791.95,3369.36,3369.32,7791.99
82.375,5821.33,6674.27,3360.48,3360.45,6674.29
82.25,5226.67,5832.12,3353.72,3353.71,5832.14
82.125,4829.33,5196.59,3348.38,3348.37,5196.6
82,4474.67,4718.12,3344.3,3344.3,4718.12
81.875,4308,4357.37,3340.82,3340.81,4357.38
81.75,3894.67,4087.02,3338.81,3338.81,4087.02
81.625,3765.33,3884.8,3337.27,3337.27,3884.8
81.5,3649.33,3734.48,3336.14,3336.14,3734.48
81.375,3648,3622.81,3335.01,3335.01,3622.81
81.25,3590.67,3540.5,3334.09,3334.09,3540.5
81.125,3396,3480.86,3333.87,3333.87,3480.86
81,3309.33,3437.65,3333.78,3333.78,3437.65
80.875,3296,3368.8,3296,3296,3368.8
80.75,3254.67,3305.25,3254.67,3254.67,3305.25
80.625,3193.33,3228.21,3193.33,3193.33,3228.21
80.5,3222.67,3246.5,3222.67,3222.67,3246.5
80.375,3058.67,3074.8,3058.67,3058.67,3074.8
80.25,3006.67,3017.5,3006.67,3006.67,3017.5
80.125,2974.67,2981.87,2974.67,2974.67,2981.87
80,2930.67,2935.41,2930.67,2930.67,2935.41
