,,,
,,,
Characteristic Energy eV,1486.6,Acquisition Time s,
BE_O 1s 3,CPS_O 1s 3,Background_O 1s 3,
537,19615.7,19615.7,
536.875,19520.8,19520.8,
536.75,19631.5,19631.5,
536.625,19594.1,19594.1,
536.5,19462.9,19462.9,
536.375,19496.5,19496.5,
536.25,19634.9,19634.9,
536.125,19490.1,19490.1,
536,19461.3,19461.3,
535.875,19506.9,19506.9,
535.75,19442.1,19442.1,
535.625,19402.1,19402.1,
535.5,19448.8,19442.3,
535.375,19476,19442,
535.25,19460,19441.8,
535.125,19420.3,19441.6,
535,19405.1,19441.3,
534.875,19437.1,19441.2,
534.75,19492,19440.8,
534.625,19668,19438.8,
534.5,19685.1,19436.5,
534.375,19767.7,19433.6,
534.25,19746.4,19430.8,
534.125,19861.3,19426.9,
534,20117.1,19420.7,
533.875,20111.2,19414.6,
533.75,20553.6,19404.4,
533.625,20747.7,19392.3,
533.5,20980,19378.1,
533.375,21229.6,19361.5,
533.25,21467.2,19342.7,
533.125,21632,19322.2,
533,21662.7,19301.2,
532.875,21795.7,19278.8,
532.75,21923.2,19255.2,
532.625,21995.5,19230.6,
532.5,22140.8,19204.6,
532.375,21980.3,19179.7,
532.25,21908,19155.3,
532.125,21843.2,19131.2,
532,21811.5,19107.2,
531.875,21620.3,19084.7,
531.75,21540.3,19062.7,
531.625,21360.3,19042.1,
531.5,21340.5,19021.5,
531.375,21172.3,19002.3,
531.25,21216.5,18982.4,
531.125,21239.2,18962.2,
531,21102.1,18943,
530.875,21008.3,18924.5,
530.75,21220,18904,
530.625,21080.5,18884.5,
530.5,21223.7,18863.5,
530.375,21089.6,18843.6,
530.25,21087.5,18823.5,
530.125,20886.7,18805,
530,20688.3,18788.2,
529.875,20239.5,18775.2,
529.75,20060.3,18763.6,
529.625,19957.1,18753,
529.5,19542.9,18745.9,
529.375,19381.1,18740.2,
529.25,19202.4,18736.1,
529.125,19190.1,18732,
529,18865.6,18730.8,
528.875,18964.8,18728.7,
528.75,18879.2,18727.3,
528.625,18916,18725.7,
528.5,18876.3,18724.3,
528.375,18834.1,18723.3,
528.25,18767.7,18722.9,
528.125,18775.5,18722.5,
528,18698.1,18722.2,
527.875,18730.1,18722.2,
527.75,18746.9,18722,
527.625,18751.2,18721.7,
527.5,18751.5,18721.4,
527.375,18661.6,18661.6,
527.25,18829.6,18829.6,
527.125,18755.5,18755.5,
527,18946.4,18946.4,
