,,,
,,,
Characteristic Energy eV,1486.6,Acquisition Time s,
BE_Sur1 1,CPS_Sur1 1,Background_Sur1 1,
1349.4,101788,101788,
1349,99929.4,99929.4,
1348.6,100421,100421,
1348.2,100724,100724,
1347.8,99094.1,99094.1,
1347.4,99611.8,99611.8,
1347,99552.9,99552.9,
1346.6,99444.1,99444.1,
1346.2,99323.5,99323.5,
1345.8,98791.2,98791.2,
1345.4,98702.9,98702.9,
1345,97779.4,97779.4,
1344.6,98364.7,98364.7,
1344.2,98729.4,98729.4,
1343.8,97973.5,97973.5,
1343.4,98176.5,98176.5,
1343,98070.6,98070.6,
1342.6,97205.9,97205.9,
1342.2,97238.2,97238.2,
1341.8,97997.1,97997.1,
1341.4,97679.4,97679.4,
1341,96994.1,96994.1,
1340.6,96900,96900,
1340.2,95688.2,95688.2,
1339.8,95376.5,95376.5,
1339.4,95364.7,95364.7,
1339,94176.5,94176.5,
1338.6,93700,93700,
1338.2,94841.2,94841.2,
1337.8,94479.4,94479.4,
1337.4,93535.3,93535.3,
1337,93785.3,93785.3,
1336.6,93705.9,93705.9,
1336.2,93747.1,93747.1,
1335.8,93020.6,93020.6,
1335.4,93661.8,93661.8,
1335,92447.1,92447.1,
1334.6,93264.7,93264.7,
1334.2,91958.8,91958.8,
1333.8,92232.4,92232.4,
1333.4,90614.7,90614.7,
1333,90997.1,90997.1,
1332.6,91020.6,91020.6,
1332.2,90211.8,90211.8,
1331.8,88988.2,88988.2,
1331.4,88597.1,88597.1,
1331,89417.6,89417.6,
1330.6,88147.1,88147.1,
1330.2,87205.9,87205.9,
1329.8,87282.4,87282.4,
1329.4,86391.2,86391.2,
1329,87285.3,87285.3,
1328.6,86008.8,86008.8,
1328.2,85494.1,85494.1,
1327.8,85714.7,85714.7,
1327.4,84914.7,84914.7,
1327,86064.7,86064.7,
1326.6,84532.4,84532.4,
1326.2,84258.8,84258.8,
1325.8,84358.8,84358.8,
1325.4,84932.4,84932.4,
1325,84664.7,84664.7,
1324.6,85511.8,85511.8,
1324.2,84408.8,84408.8,
1323.8,83982.4,83982.4,
1323.4,84700,84700,
1323,84629.4,84629.4,
1322.6,84547.1,84547.1,
1322.2,84023.5,84023.5,
1321.8,82855.9,82855.9,
1321.4,82658.8,82658.8,
1321,82179.4,82179.4,
1320.6,81820.6,81820.6,
1320.2,81161.8,81161.8,
1319.8,81176.5,81176.5,
1319.4,80708.8,80708.8,
1319,81588.2,81588.2,
1318.6,79941.2,79941.2,
1318.2,80347.1,80347.1,
1317.8,79029.4,79029.4,
1317.4,78964.7,78964.7,
1317,78888.2,78888.2,
1316.6,78717.6,78717.6,
1316.2,77417.6,77417.6,
1315.8,78702.9,78702.9,
1315.4,77555.9,77555.9,
1315,76685.3,76685.3,
1314.6,76688.2,76688.2,
1314.2,77700,77700,
1313.8,76782.4,76782.4,
1313.4,77411.8,77411.8,
1313,75994.1,75994.1,
1312.6,77355.9,77355.9,
1312.2,76914.7,76914.7,
1311.8,74767.6,74767.6,
1311.4,75920.6,75920.6,
1311,75452.9,75452.9,
1310.6,74841.2,74841.2,
1310.2,74179.4,74179.4,
1309.8,74532.4,74532.4,
1309.4,74288.2,74288.2,
1309,74888.2,74888.2,
1308.6,74705.9,74705.9,
1308.2,73805.9,73805.9,
1307.8,74629.4,74629.4,
1307.4,73955.9,73955.9,
1307,73179.4,73179.4,
1306.6,73650,73650,
1306.2,72579.4,72579.4,
1305.8,73326.5,73326.5,
1305.4,72970.6,72970.6,
1305,73064.7,73064.7,
1304.6,73041.2,73041.2,
1304.2,73085.3,73085.3,
1303.8,73391.2,73391.2,
1303.4,72250,72250,
1303,71917.6,71917.6,
1302.6,72855.9,72855.9,
1302.2,73055.9,73055.9,
1301.8,72326.5,72326.5,
1301.4,72408.8,72408.8,
1301,72061.8,72061.8,
1300.6,72082.4,72082.4,
1300.2,71020.6,71020.6,
1299.8,71747.1,71747.1,
1299.4,71282.4,71282.4,
1299,71370.6,71370.6,
1298.6,70782.4,70782.4,
1298.2,71417.6,71417.6,
1297.8,71155.9,71155.9,
1297.4,70285.3,70285.3,
1297,69452.9,69452.9,
1296.6,70202.9,70202.9,
1296.2,70773.5,70773.5,
1295.8,70350,70350,
1295.4,69182.4,69182.4,
1295,69626.5,69626.5,
1294.6,69173.5,69173.5,
1294.2,69517.6,69517.6,
1293.8,69552.9,69552.9,
1293.4,68388.2,68388.2,
1293,68020.6,68020.6,
1292.6,68564.7,68564.7,
1292.2,69082.4,69082.4,
1291.8,68144.1,68144.1,
1291.4,68214.7,68214.7,
1291,68344.1,68344.1,
1290.6,68135.3,68135.3,
1290.2,67770.6,67770.6,
1289.8,68264.7,68264.7,
1289.4,68761.8,68761.8,
1289,68720.6,68720.6,
1288.6,68508.8,68508.8,
1288.2,67914.7,67914.7,
1287.8,68094.1,68094.1,
1287.4,66755.9,66755.9,
1287,67832.4,67832.4,
1286.6,67967.6,67967.6,
1286.2,67111.8,67111.8,
1285.8,67341.2,67341.2,
1285.4,67500,67500,
1285,67582.4,67582.4,
1284.6,66991.2,66991.2,
1284.2,66414.7,66414.7,
1283.8,66752.9,66752.9,
1283.4,67308.8,67308.8,
1283,67235.3,67235.3,
1282.6,66300,66300,
1282.2,66370.6,66370.6,
1281.8,66605.9,66605.9,
1281.4,65329.4,65329.4,
1281,66505.9,66505.9,
1280.6,66314.7,66314.7,
1280.2,66526.5,66526.5,
1279.8,66052.9,66052.9,
1279.4,64867.6,64867.6,
1279,65679.4,65679.4,
1278.6,65214.7,65214.7,
1278.2,64997.1,64997.1,
1277.8,64491.2,64491.2,
1277.4,65485.3,65485.3,
1277,64694.1,64694.1,
1276.6,65455.9,65455.9,
1276.2,64500,64500,
1275.8,65117.6,65117.6,
1275.4,64523.5,64523.5,
1275,64191.2,64191.2,
1274.6,64567.6,64567.6,
1274.2,64185.3,64185.3,
1273.8,64135.3,64135.3,
1273.4,63679.4,63679.4,
1273,63752.9,63752.9,
1272.6,64217.6,64217.6,
1272.2,65317.6,65317.6,
1271.8,63720.6,63720.6,
1271.4,63908.8,63908.8,
1271,63641.2,63641.2,
1270.6,63723.5,63723.5,
1270.2,64344.1,64344.1,
1269.8,63438.2,63438.2,
1269.4,64308.8,64308.8,
1269,64091.2,64091.2,
1268.6,64014.7,64014.7,
1268.2,63261.8,63261.8,
1267.8,64117.6,64117.6,
1267.4,63585.3,63585.3,
1267,64197.1,64197.1,
1266.6,63476.5,63476.5,
1266.2,62729.4,62729.4,
1265.8,62847.1,62847.1,
1265.4,63079.4,63079.4,
1265,64311.8,64311.8,
1264.6,63005.9,63005.9,
1264.2,63073.5,63073.5,
1263.8,63279.4,63279.4,
1263.4,63332.4,63332.4,
1263,62476.5,62476.5,
1262.6,62391.2,62391.2,
1262.2,62652.9,62652.9,
1261.8,63002.9,63002.9,
1261.4,63208.8,63208.8,
1261,62805.9,62805.9,
1260.6,62741.2,62741.2,
1260.2,63302.9,63302.9,
1259.8,62097.1,62097.1,
1259.4,63314.7,63314.7,
1259,62155.9,62155.9,
1258.6,62682.4,62682.4,
1258.2,63302.9,63302.9,
1257.8,61576.5,61576.5,
1257.4,62129.4,62129.4,
1257,62288.2,62288.2,
1256.6,61847.1,61847.1,
1256.2,62197.1,62197.1,
1255.8,61623.5,61623.5,
1255.4,62105.9,62105.9,
1255,61617.6,61617.6,
1254.6,62700,62700,
1254.2,61485.3,61485.3,
1253.8,61873.5,61873.5,
1253.4,61935.3,61935.3,
1253,61494.1,61494.1,
1252.6,60929.4,60929.4,
1252.2,61085.3,61085.3,
1251.8,62052.9,62052.9,
1251.4,61720.6,61720.6,
1251,61567.6,61567.6,
1250.6,62826.5,62826.5,
1250.2,61638.2,61638.2,
1249.8,62138.2,62138.2,
1249.4,62288.2,62288.2,
1249,62332.4,62332.4,
1248.6,62579.4,62579.4,
1248.2,62905.9,62905.9,
1247.8,63626.5,63626.5,
1247.4,62626.5,62626.5,
1247,62114.7,62114.7,
1246.6,62835.3,62835.3,
1246.2,62167.6,62167.6,
1245.8,63041.2,63041.2,
1245.4,62414.7,62414.7,
1245,62514.7,62514.7,
1244.6,63008.8,63008.8,
1244.2,62397.1,62397.1,
1243.8,62055.9,62055.9,
1243.4,61873.5,61873.5,
1243,62111.8,62111.8,
1242.6,61458.8,61458.8,
1242.2,60929.4,60929.4,
1241.8,61373.5,61373.5,
1241.4,60305.9,60305.9,
1241,60135.3,60135.3,
1240.6,61405.9,61405.9,
1240.2,60244.1,60244.1,
1239.8,59808.8,59808.8,
1239.4,59514.7,59514.7,
1239,59970.6,59970.6,
1238.6,59400,59400,
1238.2,59541.2,59541.2,
1237.8,59679.4,59679.4,
1237.4,59726.5,59726.5,
1237,60076.5,60076.5,
1236.6,59276.5,59276.5,
1236.2,60400,60400,
1235.8,59261.8,59261.8,
1235.4,59576.5,59576.5,
1235,59517.6,59517.6,
1234.6,60111.8,60111.8,
1234.2,58967.6,58967.6,
1233.8,59194.1,59194.1,
1233.4,59491.2,59491.2,
1233,58661.8,58661.8,
1232.6,60067.6,60067.6,
1232.2,59402.9,59402.9,
1231.8,59694.1,59694.1,
1231.4,60047.1,60047.1,
1231,60032.4,60032.4,
1230.6,60555.9,60555.9,
1230.2,60870.6,60870.6,
1229.8,59697.1,59697.1,
1229.4,60020.6,60020.6,
1229,60226.5,60226.5,
1228.6,60644.1,60644.1,
1228.2,60338.2,60338.2,
1227.8,59905.9,59905.9,
1227.4,60011.8,60011.8,
1227,59126.5,59126.5,
1226.6,59535.3,59535.3,
1226.2,60132.4,60132.4,
1225.8,59214.7,59214.7,
1225.4,59611.8,59611.8,
1225,59385.3,59385.3,
1224.6,58841.2,58841.2,
1224.2,58588.2,58588.2,
1223.8,58623.5,58623.5,
1223.4,58997.1,58997.1,
1223,57767.6,57767.6,
1222.6,58652.9,58652.9,
1222.2,58058.8,58058.8,
1221.8,57455.9,57455.9,
1221.4,57920.6,57920.6,
1221,57779.4,57779.4,
1220.6,58720.6,58720.6,
1220.2,57450,57450,
1219.8,57394.1,57394.1,
1219.4,57258.8,57258.8,
1219,57326.5,57326.5,
1218.6,57317.6,57317.6,
1218.2,56829.4,56829.4,
1217.8,56582.4,56582.4,
1217.4,56158.8,56158.8,
1217,55538.2,55538.2,
1216.6,55582.4,55582.4,
1216.2,55194.1,55194.1,
1215.8,55391.2,55391.2,
1215.4,55420.6,55420.6,
1215,55247.1,55247.1,
1214.6,54961.8,54961.8,
1214.2,54358.8,54358.8,
1213.8,53700,53700,
1213.4,54247.1,54247.1,
1213,54150,54150,
1212.6,53935.3,53935.3,
1212.2,54173.5,54173.5,
1211.8,52676.5,52676.5,
1211.4,53102.9,53102.9,
1211,52352.9,52352.9,
1210.6,52694.1,52694.1,
1210.2,52797.1,52797.1,
1209.8,52567.6,52567.6,
1209.4,52155.9,52155.9,
1209,52511.8,52511.8,
1208.6,53197.1,53197.1,
1208.2,52344.1,52344.1,
1207.8,52726.5,52726.5,
1207.4,52114.7,52114.7,
1207,52241.2,52241.2,
1206.6,51802.9,51802.9,
1206.2,51935.3,51935.3,
1205.8,52452.9,52452.9,
1205.4,52250,52250,
1205,51785.3,51785.3,
1204.6,52323.5,52323.5,
1204.2,51411.8,51411.8,
1203.8,51982.4,51982.4,
1203.4,51844.1,51844.1,
1203,52294.1,52294.1,
1202.6,51808.8,51808.8,
1202.2,52338.2,52338.2,
1201.8,51952.9,51952.9,
1201.4,51635.3,51635.3,
1201,51670.6,51670.6,
1200.6,51823.5,51823.5,
1200.2,51970.6,51970.6,
1199.8,51402.9,51402.9,
1199.4,51179.4,51179.4,
1199,51882.4,51882.4,
1198.6,51985.3,51985.3,
1198.2,52332.4,52332.4,
1197.8,51752.9,51752.9,
1197.4,51723.5,51723.5,
1197,50717.6,50717.6,
1196.6,52458.8,52458.8,
1196.2,51667.6,51667.6,
1195.8,52117.6,52117.6,
1195.4,51758.8,51758.8,
1195,52244.1,52244.1,
1194.6,50835.3,50835.3,
1194.2,51758.8,51758.8,
1193.8,51867.6,51867.6,
1193.4,51520.6,51520.6,
1193,52308.8,52308.8,
1192.6,51791.2,51791.2,
1192.2,51770.6,51770.6,
1191.8,51811.8,51811.8,
1191.4,51594.1,51594.1,
1191,52041.2,52041.2,
1190.6,51694.1,51694.1,
1190.2,51282.4,51282.4,
1189.8,51817.6,51817.6,
1189.4,51094.1,51094.1,
1189,51408.8,51408.8,
1188.6,50585.3,50585.3,
1188.2,51138.2,51138.2,
1187.8,50958.8,50958.8,
1187.4,51470.6,51470.6,
1187,51361.8,51361.8,
1186.6,50797.1,50797.1,
1186.2,50976.5,50976.5,
1185.8,51229.4,51229.4,
1185.4,51105.9,51105.9,
1185,50788.2,50788.2,
1184.6,50800,50800,
1184.2,51202.9,51202.9,
1183.8,51788.2,51788.2,
1183.4,50888.2,50888.2,
1183,51105.9,51105.9,
1182.6,50958.8,50958.8,
1182.2,51229.4,51229.4,
1181.8,50952.9,50952.9,
1181.4,51188.2,51188.2,
1181,51438.2,51438.2,
1180.6,51305.9,51305.9,
1180.2,51347.1,51347.1,
1179.8,51708.8,51708.8,
1179.4,51244.1,51244.1,
1179,51344.1,51344.1,
1178.6,51514.7,51514.7,
1178.2,51817.6,51817.6,
1177.8,51879.4,51879.4,
1177.4,51817.6,51817.6,
1177,51032.4,51032.4,
1176.6,51758.8,51758.8,
1176.2,51326.5,51326.5,
1175.8,51826.5,51826.5,
1175.4,51567.6,51567.6,
1175,51702.9,51702.9,
1174.6,51832.4,51832.4,
1174.2,52052.9,52052.9,
1173.8,51647.1,51647.1,
1173.4,51861.8,51861.8,
1173,51347.1,51347.1,
1172.6,51235.3,51235.3,
1172.2,52314.7,52314.7,
1171.8,51779.4,51779.4,
1171.4,51664.7,51664.7,
1171,51594.1,51594.1,
1170.6,51908.8,51908.8,
1170.2,52517.6,52517.6,
1169.8,51717.6,51717.6,
1169.4,52573.5,52573.5,
1169,51217.6,51217.6,
1168.6,52005.9,52005.9,
1168.2,51717.6,51717.6,
1167.8,51735.3,51735.3,
1167.4,51835.3,51835.3,
1167,52514.7,52514.7,
1166.6,51750,51750,
1166.2,52241.2,52241.2,
1165.8,52452.9,52452.9,
1165.4,51494.1,51494.1,
1165,52294.1,52294.1,
1164.6,52655.9,52655.9,
1164.2,52164.7,52164.7,
1163.8,52367.6,52367.6,
1163.4,52044.1,52044.1,
1163,52511.8,52511.8,
1162.6,52085.3,52085.3,
1162.2,51188.2,51188.2,
1161.8,51708.8,51708.8,
1161.4,52055.9,52055.9,
1161,52014.7,52014.7,
1160.6,51947.1,51947.1,
1160.2,52147.1,52147.1,
1159.8,51908.8,51908.8,
1159.4,51720.6,51720.6,
1159,51938.2,51938.2,
1158.6,52138.2,52138.2,
1158.2,52617.6,52617.6,
1157.8,52235.3,52235.3,
1157.4,52476.5,52476.5,
1157,50950,50950,
1156.6,52438.2,52438.2,
1156.2,51564.7,51564.7,
1155.8,51779.4,51779.4,
1155.4,52258.8,52258.8,
1155,52320.6,52320.6,
1154.6,51755.9,51755.9,
1154.2,52000,52000,
1153.8,52426.5,52426.5,
1153.4,52108.8,52108.8,
1153,52076.5,52076.5,
1152.6,51891.2,51891.2,
1152.2,52411.8,52411.8,
1151.8,52052.9,52052.9,
1151.4,51305.9,51305.9,
1151,52591.2,52591.2,
1150.6,52297.1,52297.1,
1150.2,52173.5,52173.5,
1149.8,52050,52050,
1149.4,53294.1,53294.1,
1149,52179.4,52179.4,
1148.6,51820.6,51820.6,
1148.2,51850,51850,
1147.8,51711.8,51711.8,
1147.4,52079.4,52079.4,
1147,52091.2,52091.2,
1146.6,51535.3,51535.3,
1146.2,52838.2,52838.2,
1145.8,51502.9,51502.9,
1145.4,52458.8,52458.8,
1145,52326.5,52326.5,
1144.6,52741.2,52741.2,
1144.2,52373.5,52373.5,
1143.8,52026.5,52026.5,
1143.4,51458.8,51458.8,
1143,52017.6,52017.6,
1142.6,51944.1,51944.1,
1142.2,52611.8,52611.8,
1141.8,52500,52500,
1141.4,51550,51550,
1141,52047.1,52047.1,
1140.6,51555.9,51555.9,
1140.2,52044.1,52044.1,
1139.8,51570.6,51570.6,
1139.4,51788.2,51788.2,
1139,52332.4,52332.4,
1138.6,52770.6,52770.6,
1138.2,51517.6,51517.6,
1137.8,52300,52300,
1137.4,51385.3,51385.3,
1137,52150,52150,
1136.6,52185.3,52185.3,
1136.2,52741.2,52741.2,
1135.8,52570.6,52570.6,
1135.4,52485.3,52485.3,
1135,51894.1,51894.1,
1134.6,51185.3,51185.3,
1134.2,52720.6,52720.6,
1133.8,52285.3,52285.3,
1133.4,52388.2,52388.2,
1133,52391.2,52391.2,
1132.6,51914.7,51914.7,
1132.2,52797.1,52797.1,
1131.8,51708.8,51708.8,
1131.4,52794.1,52794.1,
1131,52497.1,52497.1,
1130.6,52652.9,52652.9,
1130.2,51985.3,51985.3,
1129.8,52470.6,52470.6,
1129.4,53602.9,53602.9,
1129,52935.3,52935.3,
1128.6,52982.4,52982.4,
1128.2,52511.8,52511.8,
1127.8,52917.6,52917.6,
1127.4,52541.2,52541.2,
1127,51885.3,51885.3,
1126.6,53073.5,53073.5,
1126.2,52708.8,52708.8,
1125.8,52158.8,52158.8,
1125.4,52302.9,52302.9,
1125,52217.6,52217.6,
1124.6,52414.7,52414.7,
1124.2,52891.2,52891.2,
1123.8,52782.4,52782.4,
1123.4,52173.5,52173.5,
1123,52541.2,52541.2,
1122.6,52032.4,52032.4,
1122.2,51867.6,51867.6,
1121.8,52452.9,52452.9,
1121.4,52779.4,52779.4,
1121,52461.8,52461.8,
1120.6,52761.8,52761.8,
1120.2,51997.1,51997.1,
1119.8,51585.3,51585.3,
1119.4,52567.6,52567.6,
1119,51882.4,51882.4,
1118.6,53208.8,53208.8,
1118.2,52061.8,52061.8,
1117.8,52255.9,52255.9,
1117.4,52194.1,52194.1,
1117,52011.8,52011.8,
1116.6,52550,52550,
1116.2,51938.2,51938.2,
1115.8,52520.6,52520.6,
1115.4,52529.4,52529.4,
1115,52444.1,52444.1,
1114.6,54097.1,54097.1,
1114.2,52370.6,52370.6,
1113.8,52402.9,52402.9,
1113.4,51802.9,51802.9,
1113,52194.1,52194.1,
1112.6,51632.4,51632.4,
1112.2,53097.1,53097.1,
1111.8,52538.2,52538.2,
1111.4,53147.1,53147.1,
1111,51720.6,51720.6,
1110.6,52255.9,52255.9,
1110.2,52614.7,52614.7,
1109.8,52473.5,52473.5,
1109.4,52197.1,52197.1,
1109,52647.1,52647.1,
1108.6,52652.9,52652.9,
1108.2,52367.6,52367.6,
1107.8,52179.4,52179.4,
1107.4,52564.7,52564.7,
1107,53202.9,53202.9,
1106.6,52355.9,52355.9,
1106.2,52888.2,52888.2,
1105.8,52394.1,52394.1,
1105.4,52558.8,52558.8,
1105,53714.7,53714.7,
1104.6,52229.4,52229.4,
1104.2,53302.9,53302.9,
1103.8,52429.4,52429.4,
1103.4,52082.4,52082.4,
1103,53164.7,53164.7,
1102.6,52944.1,52944.1,
1102.2,52535.3,52535.3,
1101.8,52876.5,52876.5,
1101.4,52188.2,52188.2,
1101,53020.6,53020.6,
1100.6,52388.2,52388.2,
1100.2,53138.2,53138.2,
1099.8,51958.8,51958.8,
1099.4,52738.2,52738.2,
1099,52523.5,52523.5,
1098.6,52802.9,52802.9,
1098.2,52800,52800,
1097.8,53023.5,53023.5,
1097.4,53252.9,53252.9,
1097,52791.2,52791.2,
1096.6,52614.7,52614.7,
1096.2,52964.7,52964.7,
1095.8,53717.6,53717.6,
1095.4,52300,52300,
1095,53258.8,53258.8,
1094.6,52517.6,52517.6,
1094.2,52717.6,52717.6,
1093.8,53211.8,53211.8,
1093.4,52317.6,52317.6,
1093,52214.7,52214.7,
1092.6,53261.8,53261.8,
1092.2,52917.6,52917.6,
1091.8,53000,53000,
1091.4,53400,53400,
1091,53614.7,53614.7,
1090.6,52970.6,52970.6,
1090.2,52958.8,52958.8,
1089.8,52579.4,52579.4,
1089.4,52982.4,52982.4,
1089,52541.2,52541.2,
1088.6,53108.8,53108.8,
1088.2,53535.3,53535.3,
1087.8,52682.4,52682.4,
1087.4,53735.3,53735.3,
1087,52452.9,52452.9,
1086.6,52958.8,52958.8,
1086.2,53623.5,53623.5,
1085.8,52497.1,52497.1,
1085.4,52173.5,52173.5,
1085,53305.9,53305.9,
1084.6,53052.9,53052.9,
1084.2,52285.3,52285.3,
1083.8,52917.6,52917.6,
1083.4,53191.2,53191.2,
1083,52673.5,52673.5,
1082.6,52067.6,52067.6,
1082.2,52458.8,52458.8,
1081.8,52717.6,52717.6,
1081.4,52617.6,52617.6,
1081,52441.2,52441.2,
1080.6,52347.1,52347.1,
1080.2,53194.1,53194.1,
1079.8,52958.8,52958.8,
1079.4,52650,52650,
1079,53488.2,53488.2,
1078.6,52594.1,52594.1,
1078.2,52723.5,52723.5,
1077.8,52097.1,52097.1,
1077.4,52870.6,52870.6,
1077,52076.5,52076.5,
1076.6,52452.9,52452.9,
1076.2,53450,53450,
1075.8,53150,53150,
1075.4,51879.4,51879.4,
1075,52597.1,52597.1,
1074.6,52644.1,52644.1,
1074.2,52400,52400,
1073.8,52423.5,52423.5,
1073.4,53226.5,53226.5,
1073,52638.2,52638.2,
1072.6,52817.6,52817.6,
1072.2,52582.4,52582.4,
1071.8,53288.2,53288.2,
1071.4,53373.5,53373.5,
1071,53302.9,53302.9,
1070.6,53329.4,53329.4,
1070.2,53220.6,53220.6,
1069.8,52955.9,52955.9,
1069.4,53267.6,53267.6,
1069,53261.8,53261.8,
1068.6,52891.2,52891.2,
1068.2,53273.5,53273.5,
1067.8,53591.2,53591.2,
1067.4,53214.7,53214.7,
1067,53085.3,53085.3,
1066.6,53214.7,53214.7,
1066.2,53138.2,53138.2,
1065.8,53117.6,53117.6,
1065.4,52623.5,52623.5,
1065,53011.8,53011.8,
1064.6,53094.1,53094.1,
1064.2,53623.5,53623.5,
1063.8,52870.6,52870.6,
1063.4,53579.4,53579.4,
1063,52902.9,52902.9,
1062.6,53550,53550,
1062.2,53852.9,53852.9,
1061.8,53758.8,53758.8,
1061.4,53300,53300,
1061,53670.6,53670.6,
1060.6,53329.4,53329.4,
1060.2,53064.7,53064.7,
1059.8,53350,53350,
1059.4,53555.9,53555.9,
1059,53350,53350,
1058.6,53835.3,53835.3,
1058.2,53832.4,53832.4,
1057.8,53167.6,53167.6,
1057.4,54200,54200,
1057,53791.2,53791.2,
1056.6,53414.7,53414.7,
1056.2,53658.8,53658.8,
1055.8,53602.9,53602.9,
1055.4,53944.1,53944.1,
1055,53802.9,53802.9,
1054.6,53917.6,53917.6,
1054.2,53700,53700,
1053.8,54079.4,54079.4,
1053.4,53497.1,53497.1,
1053,53814.7,53814.7,
1052.6,54464.7,54464.7,
1052.2,54226.5,54226.5,
1051.8,53744.1,53744.1,
1051.4,53747.1,53747.1,
1051,53902.9,53902.9,
1050.6,53917.6,53917.6,
1050.2,54055.9,54055.9,
1049.8,53370.6,53370.6,
1049.4,53994.1,53994.1,
1049,53400,53400,
1048.6,53776.5,53776.5,
1048.2,54117.6,54117.6,
1047.8,54179.4,54179.4,
1047.4,53955.9,53955.9,
1047,54447.1,54447.1,
1046.6,54544.1,54544.1,
1046.2,54997.1,54997.1,
1045.8,54411.8,54411.8,
1045.4,55361.8,55361.8,
1045,54173.5,54173.5,
1044.6,54564.7,54564.7,
1044.2,54150,54150,
1043.8,54570.6,54570.6,
1043.4,54555.9,54555.9,
1043,54991.2,54991.2,
1042.6,54973.5,54973.5,
1042.2,54676.5,54676.5,
1041.8,54550,54550,
1041.4,54091.2,54091.2,
1041,54950,54950,
1040.6,54150,54150,
1040.2,55305.9,55305.9,
1039.8,54888.2,54888.2,
1039.4,55435.3,55435.3,
1039,55182.4,55182.4,
1038.6,54920.6,54920.6,
1038.2,55088.2,55088.2,
1037.8,54673.5,54673.5,
1037.4,55658.8,55658.8,
1037,55494.1,55494.1,
1036.6,55050,55050,
1036.2,55373.5,55373.5,
1035.8,55873.5,55873.5,
1035.4,55323.5,55323.5,
1035,55635.3,55635.3,
1034.6,56073.5,56073.5,
1034.2,55414.7,55414.7,
1033.8,55029.4,55029.4,
1033.4,55255.9,55255.9,
1033,55479.4,55479.4,
1032.6,54841.2,54841.2,
1032.2,55247.1,55247.1,
1031.8,55520.6,55520.6,
1031.4,55217.6,55217.6,
1031,55732.4,55732.4,
1030.6,55729.4,55729.4,
1030.2,55738.2,55738.2,
1029.8,55950,55950,
1029.4,55841.2,55841.2,
1029,55197.1,55197.1,
1028.6,55505.9,55505.9,
1028.2,55594.1,55594.1,
1027.8,56202.9,56202.9,
1027.4,55261.8,55261.8,
1027,55164.7,55164.7,
1026.6,55420.6,55420.6,
1026.2,55758.8,55758.8,
1025.8,56558.8,56558.8,
1025.4,55650,55650,
1025,55058.8,55058.8,
1024.6,55347.1,55347.1,
1024.2,55638.2,55638.2,
1023.8,56117.6,56117.6,
1023.4,55950,55950,
1023,55014.7,55014.7,
1022.6,55638.2,55638.2,
1022.2,56044.1,56044.1,
1021.8,55482.4,55482.4,
1021.4,55329.4,55329.4,
1021,55658.8,55658.8,
1020.6,55864.7,55864.7,
1020.2,55282.4,55282.4,
1019.8,55635.3,55635.3,
1019.4,55858.8,55858.8,
1019,55417.6,55417.6,
1018.6,56335.3,56335.3,
1018.2,55605.9,55605.9,
1017.8,56100,56100,
1017.4,55994.1,55994.1,
1017,55744.1,55744.1,
1016.6,55938.2,55938.2,
1016.2,56905.9,56905.9,
1015.8,56914.7,56914.7,
1015.4,56644.1,56644.1,
1015,56294.1,56294.1,
1014.6,55176.5,55176.5,
1014.2,56041.2,56041.2,
1013.8,56873.5,56873.5,
1013.4,56088.2,56088.2,
1013,56714.7,56714.7,
1012.6,56602.9,56602.9,
1012.2,56082.4,56082.4,
1011.8,56782.4,56782.4,
1011.4,57426.5,57426.5,
1011,56864.7,56864.7,
1010.6,56685.3,56685.3,
1010.2,56679.4,56679.4,
1009.8,56479.4,56479.4,
1009.4,55897.1,55897.1,
1009,56323.5,56323.5,
1008.6,56691.2,56691.2,
1008.2,56297.1,56297.1,
1007.8,56617.6,56617.6,
1007.4,56485.3,56485.3,
1007,56679.4,56679.4,
1006.6,56750,56750,
1006.2,57229.4,57229.4,
1005.8,56905.9,56905.9,
1005.4,57317.6,57317.6,
1005,56600,56600,
1004.6,57035.3,57035.3,
1004.2,57005.9,57005.9,
1003.8,57300,57300,
1003.4,57476.5,57476.5,
1003,56723.5,56723.5,
1002.6,57005.9,57005.9,
1002.2,58285.3,58285.3,
1001.8,57420.6,57420.6,
1001.4,58070.6,58070.6,
1001,58229.4,58229.4,
1000.6,56932.4,56932.4,
1000.2,57367.6,57367.6,
999.8,58164.7,58164.7,
999.4,57608.8,57608.8,
999,57073.5,57073.5,
998.6,57982.4,57982.4,
998.2,57108.8,57108.8,
997.8,57744.1,57744.1,
997.4,57597.1,57597.1,
997,57861.8,57861.8,
996.6,57270.6,57270.6,
996.2,57735.3,57735.3,
995.8,57602.9,57602.9,
995.4,58450,58450,
995,58161.8,58161.8,
994.6,57314.7,57314.7,
994.2,57611.8,57611.8,
993.8,57426.5,57426.5,
993.4,57735.3,57735.3,
993,57829.4,57829.4,
992.6,58232.4,58232.4,
992.2,58105.9,58105.9,
991.8,57911.8,57911.8,
991.4,57467.6,57467.6,
991,58252.9,58252.9,
990.6,58588.2,58588.2,
990.2,56891.2,56891.2,
989.8,58041.2,58041.2,
989.4,57514.7,57514.7,
989,57500,57500,
988.6,56967.6,56967.6,
988.2,57932.4,57932.4,
987.8,57458.8,57458.8,
987.4,58061.8,58061.8,
987,57958.8,57958.8,
986.6,57732.4,57732.4,
986.2,57802.9,57802.9,
985.8,56926.5,56926.5,
985.4,57908.8,57908.8,
985,58044.1,58044.1,
984.6,58585.3,58585.3,
984.2,58464.7,58464.7,
983.8,58205.9,58205.9,
983.4,57720.6,57720.6,
983,58270.6,58270.6,
982.6,58000,58000,
982.2,57723.5,57723.5,
981.8,57808.8,57808.8,
981.4,58752.9,58752.9,
981,58694.1,58694.1,
980.6,58626.5,58626.5,
980.2,59085.3,59085.3,
979.8,58782.4,58782.4,
979.4,59452.9,59452.9,
979,59561.8,59561.8,
978.6,59823.5,59823.5,
978.2,59282.4,59282.4,
977.8,60305.9,60305.9,
977.4,59282.4,59282.4,
977,59655.9,59655.9,
976.6,58858.8,58858.8,
976.2,59452.9,59452.9,
975.8,60261.8,60261.8,
975.4,59229.4,59229.4,
975,59650,59650,
974.6,58652.9,58652.9,
974.2,59602.9,59602.9,
973.8,59614.7,59614.7,
973.4,59770.6,59770.6,
973,59588.2,59588.2,
972.6,59117.6,59117.6,
972.2,59950,59950,
971.8,59547.1,59547.1,
971.4,59735.3,59735.3,
971,59350,59350,
970.6,59714.7,59714.7,
970.2,59117.6,59117.6,
969.8,59367.6,59367.6,
969.4,59655.9,59655.9,
969,59600,59600,
968.6,59208.8,59208.8,
968.2,59067.6,59067.6,
967.8,58300,58300,
967.4,58414.7,58414.7,
967,58911.8,58911.8,
966.6,58502.9,58502.9,
966.2,58935.3,58935.3,
965.8,59076.5,59076.5,
965.4,58255.9,58255.9,
965,58314.7,58314.7,
964.6,59867.6,59867.6,
964.2,58361.8,58361.8,
963.8,59388.2,59388.2,
963.4,59076.5,59076.5,
963,59200,59200,
962.6,59229.4,59229.4,
962.2,59394.1,59394.1,
961.8,58994.1,58994.1,
961.4,58664.7,58664.7,
961,58667.6,58667.6,
960.6,59782.4,59782.4,
960.2,59297.1,59297.1,
959.8,59038.2,59038.2,
959.4,59494.1,59494.1,
959,59179.4,59179.4,
958.6,59226.5,59226.5,
958.2,59085.3,59085.3,
957.8,58752.9,58752.9,
957.4,59147.1,59147.1,
957,59929.4,59929.4,
956.6,59911.8,59911.8,
956.2,59100,59100,
955.8,59602.9,59602.9,
955.4,59520.6,59520.6,
955,59094.1,59094.1,
954.6,58973.5,58973.5,
954.2,60076.5,60076.5,
953.8,59844.1,59844.1,
953.4,59141.2,59141.2,
953,59873.5,59873.5,
952.6,59241.2,59241.2,
952.2,59447.1,59447.1,
951.8,59217.6,59217.6,
951.4,59191.2,59191.2,
951,59614.7,59614.7,
950.6,59891.2,59891.2,
950.2,59255.9,59255.9,
949.8,60023.5,60023.5,
949.4,60017.6,60017.6,
949,59641.2,59641.2,
948.6,59235.3,59235.3,
948.2,59458.8,59458.8,
947.8,60273.5,60273.5,
947.4,59552.9,59552.9,
947,60232.4,60232.4,
946.6,59441.2,59441.2,
946.2,59844.1,59844.1,
945.8,59864.7,59864.7,
945.4,59347.1,59347.1,
945,60429.4,60429.4,
944.6,60414.7,60414.7,
944.2,59391.2,59391.2,
943.8,60547.1,60547.1,
943.4,59573.5,59573.5,
943,60226.5,60226.5,
942.6,61085.3,61085.3,
942.2,59688.2,59688.2,
941.8,60085.3,60085.3,
941.4,60079.4,60079.4,
941,60402.9,60402.9,
940.6,60470.6,60470.6,
940.2,60570.6,60570.6,
939.8,60082.4,60082.4,
939.4,61082.4,61082.4,
939,60591.2,60591.2,
938.6,61508.8,61508.8,
938.2,60700,60700,
937.8,60705.9,60705.9,
937.4,60852.9,60852.9,
937,60250,60250,
936.6,61214.7,61214.7,
936.2,61117.6,61117.6,
935.8,61288.2,61288.2,
935.4,61552.9,61552.9,
935,61161.8,61161.8,
934.6,61050,61050,
934.2,61305.9,61305.9,
933.8,61705.9,61705.9,
933.4,62141.2,62141.2,
933,61414.7,61414.7,
932.6,61105.9,61105.9,
932.2,61188.2,61188.2,
931.8,61008.8,61008.8,
931.4,61911.8,61911.8,
931,61252.9,61252.9,
930.6,61291.2,61291.2,
930.2,60950,60950,
929.8,61352.9,61352.9,
929.4,61708.8,61708.8,
929,61361.8,61361.8,
928.6,60855.9,60855.9,
928.2,60682.4,60682.4,
927.8,62514.7,62514.7,
927.4,61491.2,61491.2,
927,61405.9,61405.9,
926.6,61717.6,61717.6,
926.2,62088.2,62088.2,
925.8,61397.1,61397.1,
925.4,61105.9,61105.9,
925,61391.2,61391.2,
924.6,61808.8,61808.8,
924.2,61738.2,61738.2,
923.8,62076.5,62076.5,
923.4,61394.1,61394.1,
923,61647.1,61647.1,
922.6,62611.8,62611.8,
922.2,62585.3,62585.3,
921.8,62011.8,62011.8,
921.4,62217.6,62217.6,
921,61111.8,61111.8,
920.6,62173.5,62173.5,
920.2,61891.2,61891.2,
919.8,61679.4,61679.4,
919.4,61491.2,61491.2,
919,61779.4,61779.4,
918.6,62602.9,62602.9,
918.2,62776.5,62776.5,
917.8,62073.5,62073.5,
917.4,62076.5,62076.5,
917,62341.2,62341.2,
916.6,61902.9,61902.9,
916.2,62697.1,62697.1,
915.8,62035.3,62035.3,
915.4,61873.5,61873.5,
915,62764.7,62764.7,
914.6,63076.5,63076.5,
914.2,63217.6,63217.6,
913.8,62905.9,62905.9,
913.4,63535.3,63535.3,
913,63329.4,63329.4,
912.6,62167.6,62167.6,
912.2,62526.5,62526.5,
911.8,62655.9,62655.9,
911.4,63432.4,63432.4,
911,62579.4,62579.4,
910.6,62835.3,62835.3,
910.2,63500,63500,
909.8,63529.4,63529.4,
909.4,63067.6,63067.6,
909,62767.6,62767.6,
908.6,62700,62700,
908.2,63685.3,63685.3,
907.8,63488.2,63488.2,
907.4,63088.2,63088.2,
907,63476.5,63476.5,
906.6,63111.8,63111.8,
906.2,62735.3,62735.3,
905.8,63582.4,63582.4,
905.4,63776.5,63776.5,
905,62794.1,62794.1,
904.6,63455.9,63455.9,
904.2,62929.4,62929.4,
903.8,63364.7,63364.7,
903.4,64002.9,64002.9,
903,63926.5,63926.5,
902.6,64082.4,64082.4,
902.2,63667.6,63667.6,
901.8,62782.4,62782.4,
901.4,64238.2,64238.2,
901,63629.4,63629.4,
900.6,63552.9,63552.9,
900.2,63958.8,63958.8,
899.8,63764.7,63764.7,
899.4,63185.3,63185.3,
899,63579.4,63579.4,
898.6,63282.4,63282.4,
898.2,63785.3,63785.3,
897.8,64220.6,64220.6,
897.4,64355.9,64355.9,
897,64452.9,64452.9,
896.6,64020.6,64020.6,
896.2,64085.3,64085.3,
895.8,64911.8,64911.8,
895.4,64691.2,64691.2,
895,63788.2,63788.2,
894.6,64023.5,64023.5,
894.2,64447.1,64447.1,
893.8,64470.6,64470.6,
893.4,64279.4,64279.4,
893,64711.8,64711.8,
892.6,64426.5,64426.5,
892.2,64894.1,64894.1,
891.8,64161.8,64161.8,
891.4,65044.1,65044.1,
891,65744.1,65744.1,
890.6,64726.5,64726.5,
890.2,65394.1,65394.1,
889.8,64652.9,64652.9,
889.4,65041.2,65041.2,
889,65211.8,65211.8,
888.6,64932.4,64932.4,
888.2,65273.5,65273.5,
887.8,65241.2,65241.2,
887.4,64752.9,64752.9,
887,65176.5,65176.5,
886.6,64529.4,64529.4,
886.2,64526.5,64526.5,
885.8,64850,64850,
885.4,65697.1,65697.1,
885,64950,64950,
884.6,65588.2,65588.2,
884.2,65917.6,65917.6,
883.8,65747.1,65747.1,
883.4,65517.6,65517.6,
883,65176.5,65176.5,
882.6,66276.5,66276.5,
882.2,66376.5,66376.5,
881.8,65964.7,65964.7,
881.4,66461.8,66461.8,
881,66155.9,66155.9,
880.6,65829.4,65829.4,
880.2,65694.1,65694.1,
879.8,65170.6,65170.6,
879.4,65626.5,65626.5,
879,65914.7,65914.7,
878.6,66573.5,66573.5,
878.2,66008.8,66008.8,
877.8,65047.1,65047.1,
877.4,65552.9,65552.9,
877,66347.1,66347.1,
876.6,66441.2,66441.2,
876.2,65964.7,65964.7,
875.8,65658.8,65658.8,
875.4,66632.4,66632.4,
875,65994.1,65994.1,
874.6,66776.5,66776.5,
874.2,66664.7,66664.7,
873.8,66179.4,66179.4,
873.4,66573.5,66573.5,
873,66573.5,66573.5,
872.6,66452.9,66452.9,
872.2,66032.4,66032.4,
871.8,65976.5,65976.5,
871.4,66585.3,66585.3,
871,66829.4,66829.4,
870.6,66708.8,66708.8,
870.2,67123.5,67123.5,
869.8,66852.9,66852.9,
869.4,67326.5,67326.5,
869,66400,66400,
868.6,66614.7,66614.7,
868.2,67167.6,67167.6,
867.8,67564.7,67564.7,
867.4,67338.2,67338.2,
867,66970.6,66970.6,
866.6,66847.1,66847.1,
866.2,66920.6,66920.6,
865.8,68035.3,68035.3,
865.4,67088.2,67088.2,
865,67700,67700,
864.6,67379.4,67379.4,
864.2,66950,66950,
863.8,68344.1,68344.1,
863.4,66929.4,66929.4,
863,67879.4,67879.4,
862.6,67882.4,67882.4,
862.2,68255.9,68255.9,
861.8,67073.5,67073.5,
861.4,68888.2,68888.2,
861,67597.1,67597.1,
860.6,68488.2,68488.2,
860.2,67900,67900,
859.8,68423.5,68423.5,
859.4,68217.6,68217.6,
859,67802.9,67802.9,
858.6,67629.4,67629.4,
858.2,68258.8,68258.8,
857.8,67473.5,67473.5,
857.4,67341.2,67341.2,
857,67882.4,67882.4,
856.6,68273.5,68273.5,
856.2,68805.9,68805.9,
855.8,68550,68550,
855.4,68923.5,68923.5,
855,68797.1,68797.1,
854.6,68923.5,68923.5,
854.2,68800,68800,
853.8,68938.2,68938.2,
853.4,68405.9,68405.9,
853,68779.4,68779.4,
852.6,69217.6,69217.6,
852.2,68697.1,68697.1,
851.8,68985.3,68985.3,
851.4,67882.4,67882.4,
851,69497.1,69497.1,
850.6,69317.6,69317.6,
850.2,68952.9,68952.9,
849.8,68241.2,68241.2,
849.4,69479.4,69479.4,
849,69788.2,69788.2,
848.6,69535.3,69535.3,
848.2,69773.5,69773.5,
847.8,69629.4,69629.4,
847.4,68852.9,68852.9,
847,68808.8,68808.8,
846.6,69561.8,69561.8,
846.2,69335.3,69335.3,
845.8,69894.1,69894.1,
845.4,70658.8,70658.8,
845,69338.2,69338.2,
844.6,69897.1,69897.1,
844.2,71079.4,71079.4,
843.8,70414.7,70414.7,
843.4,70461.8,70461.8,
843,70579.4,70579.4,
842.6,69991.2,69991.2,
842.2,70270.6,70270.6,
841.8,70005.9,70005.9,
841.4,69061.8,69061.8,
841,70252.9,70252.9,
840.6,70444.1,70444.1,
840.2,70120.6,70120.6,
839.8,71038.2,71038.2,
839.4,70917.6,70917.6,
839,70508.8,70508.8,
838.6,70002.9,70002.9,
838.2,69514.7,69514.7,
837.8,70147.1,70147.1,
837.4,70261.8,70261.8,
837,70911.8,70911.8,
836.6,70570.6,70570.6,
836.2,71302.9,71302.9,
835.8,71258.8,71258.8,
835.4,70438.2,70438.2,
835,71608.8,71608.8,
834.6,71552.9,71552.9,
834.2,70964.7,70964.7,
833.8,71361.8,71361.8,
833.4,71776.5,71776.5,
833,71717.6,71717.6,
832.6,71641.2,71641.2,
832.2,71202.9,71202.9,
831.8,71614.7,71614.7,
831.4,71702.9,71702.9,
831,71955.9,71955.9,
830.6,71485.3,71485.3,
830.2,71785.3,71785.3,
829.8,71067.6,71067.6,
829.4,71600,71600,
829,71641.2,71641.2,
828.6,71338.2,71338.2,
828.2,71988.2,71988.2,
827.8,72302.9,72302.9,
827.4,72270.6,72270.6,
827,72017.6,72017.6,
826.6,71367.6,71367.6,
826.2,72655.9,72655.9,
825.8,72370.6,72370.6,
825.4,72305.9,72305.9,
825,73326.5,73326.5,
824.6,72094.1,72094.1,
824.2,72497.1,72497.1,
823.8,71976.5,71976.5,
823.4,72164.7,72164.7,
823,72635.3,72635.3,
822.6,71767.6,71767.6,
822.2,72882.4,72882.4,
821.8,72502.9,72502.9,
821.4,73108.8,73108.8,
821,72320.6,72320.6,
820.6,71985.3,71985.3,
820.2,71829.4,71829.4,
819.8,73102.9,73102.9,
819.4,73052.9,73052.9,
819,73385.3,73385.3,
818.6,73070.6,73070.6,
818.2,73058.8,73058.8,
817.8,73426.5,73426.5,
817.4,72844.1,72844.1,
817,73335.3,73335.3,
816.6,73141.2,73141.2,
816.2,74455.9,74455.9,
815.8,74197.1,74197.1,
815.4,73014.7,73014.7,
815,74020.6,74020.6,
814.6,73423.5,73423.5,
814.2,73635.3,73635.3,
813.8,74302.9,74302.9,
813.4,73858.8,73858.8,
813,73947.1,73947.1,
812.6,74167.6,74167.6,
812.2,74044.1,74044.1,
811.8,74264.7,74264.7,
811.4,74700,74700,
811,74235.3,74235.3,
810.6,74579.4,74579.4,
810.2,74514.7,74514.7,
809.8,74894.1,74894.1,
809.4,75508.8,75508.8,
809,74688.2,74688.2,
808.6,74697.1,74697.1,
808.2,74794.1,74794.1,
807.8,75344.1,75344.1,
807.4,75444.1,75444.1,
807,74691.2,74691.2,
806.6,75917.6,75917.6,
806.2,74191.2,74191.2,
805.8,74508.8,74508.8,
805.4,74855.9,74855.9,
805,75488.2,75488.2,
804.6,75267.6,75267.6,
804.2,75061.8,75061.8,
803.8,75482.4,75482.4,
803.4,76055.9,76055.9,
803,74976.5,74976.5,
802.6,74958.8,74958.8,
802.2,76029.4,76029.4,
801.8,75082.4,75082.4,
801.4,75741.2,75741.2,
801,76026.5,76026.5,
800.6,75900,75900,
800.2,75797.1,75797.1,
799.8,76570.6,76570.6,
799.4,76214.7,76214.7,
799,75755.9,75755.9,
798.6,76926.5,76926.5,
798.2,77126.5,77126.5,
797.8,76255.9,76255.9,
797.4,75797.1,75797.1,
797,77152.9,77152.9,
796.6,76600,76600,
796.2,77208.8,77208.8,
795.8,76238.2,76238.2,
795.4,75602.9,75602.9,
795,76908.8,76908.8,
794.6,76532.4,76532.4,
794.2,75864.7,75864.7,
793.8,76855.9,76855.9,
793.4,76564.7,76564.7,
793,77097.1,77097.1,
792.6,77758.8,77758.8,
792.2,77005.9,77005.9,
791.8,76423.5,76423.5,
791.4,77250,77250,
791,77844.1,77844.1,
790.6,77761.8,77761.8,
790.2,78247.1,78247.1,
789.8,78302.9,78302.9,
789.4,77114.7,77114.7,
789,77573.5,77573.5,
788.6,77102.9,77102.9,
788.2,78091.2,78091.2,
787.8,77861.8,77861.8,
787.4,77152.9,77152.9,
787,77611.8,77611.8,
786.6,78332.4,78332.4,
786.2,78561.8,78561.8,
785.8,78361.8,78361.8,
785.4,78344.1,78344.1,
785,79197.1,79197.1,
784.6,77935.3,77935.3,
784.2,77620.6,77620.6,
783.8,78426.5,78426.5,
783.4,77767.6,77767.6,
783,78394.1,78394.1,
782.6,78741.2,78741.2,
782.2,78970.6,78970.6,
781.8,78776.5,78776.5,
781.4,78255.9,78255.9,
781,79188.2,79188.2,
780.6,78852.9,78852.9,
780.2,78867.6,78867.6,
779.8,78644.1,78644.1,
779.4,78826.5,78826.5,
779,78805.9,78805.9,
778.6,78941.2,78941.2,
778.2,79335.3,79335.3,
777.8,79294.1,79294.1,
777.4,79123.5,79123.5,
777,78705.9,78705.9,
776.6,78614.7,78614.7,
776.2,78967.6,78967.6,
775.8,80250,80250,
775.4,78797.1,78797.1,
775,79911.8,79911.8,
774.6,79332.4,79332.4,
774.2,78291.2,78291.2,
773.8,79147.1,79147.1,
773.4,79411.8,79411.8,
773,78941.2,78941.2,
772.6,79402.9,79402.9,
772.2,79814.7,79814.7,
771.8,79650,79650,
771.4,79200,79200,
771,80594.1,80594.1,
770.6,80611.8,80611.8,
770.2,79308.8,79308.8,
769.8,80944.1,80944.1,
769.4,81308.8,81308.8,
769,79885.3,79885.3,
768.6,80367.6,80367.6,
768.2,80170.6,80170.6,
767.8,80638.2,80638.2,
767.4,81817.6,81817.6,
767,81858.8,81858.8,
766.6,81217.6,81217.6,
766.2,82376.5,82376.5,
765.8,82900,82900,
765.4,82920.6,82920.6,
765,84014.7,84014.7,
764.6,84529.4,84529.4,
764.2,84370.6,84370.6,
763.8,84964.7,84964.7,
763.4,85335.3,85335.3,
763,85320.6,85320.6,
762.6,84944.1,84944.1,
762.2,85032.4,85032.4,
761.8,85767.6,85767.6,
761.4,86167.6,86167.6,
761,85967.6,85967.6,
760.6,86294.1,86294.1,
760.2,84950,84950,
759.8,84332.4,84332.4,
759.4,85211.8,85211.8,
759,84402.9,84402.9,
758.6,83497.1,83497.1,
758.2,83605.9,83605.9,
757.8,82829.4,82829.4,
757.4,82879.4,82879.4,
757,81979.4,81979.4,
756.6,81761.8,81761.8,
756.2,80873.5,80873.5,
755.8,80882.4,80882.4,
755.4,80947.1,80947.1,
755,79550,79550,
754.6,80464.7,80464.7,
754.2,79652.9,79652.9,
753.8,79488.2,79488.2,
753.4,79379.4,79379.4,
753,78473.5,78473.5,
752.6,78497.1,78497.1,
752.2,79414.7,79414.7,
751.8,78988.2,78988.2,
751.4,79538.2,79538.2,
751,78185.3,78185.3,
750.6,78900,78900,
750.2,78802.9,78802.9,
749.8,79226.5,79226.5,
749.4,78226.5,78226.5,
749,78126.5,78126.5,
748.6,78341.2,78341.2,
748.2,78650,78650,
747.8,78729.4,78729.4,
747.4,78258.8,78258.8,
747,78967.6,78967.6,
746.6,78441.2,78441.2,
746.2,79129.4,79129.4,
745.8,79152.9,79152.9,
745.4,78194.1,78194.1,
745,78091.2,78091.2,
744.6,78582.4,78582.4,
744.2,78376.5,78376.5,
743.8,78761.8,78761.8,
743.4,79117.6,79117.6,
743,79152.9,79152.9,
742.6,78288.2,78288.2,
742.2,78508.8,78508.8,
741.8,78588.2,78588.2,
741.4,78461.8,78461.8,
741,79226.5,79226.5,
740.6,78129.4,78129.4,
740.2,79494.1,79494.1,
739.8,79335.3,79335.3,
739.4,79405.9,79405.9,
739,79444.1,79444.1,
738.6,78764.7,78764.7,
738.2,80435.3,80435.3,
737.8,79232.4,79232.4,
737.4,78241.2,78241.2,
737,79670.6,79670.6,
736.6,79232.4,79232.4,
736.2,79297.1,79297.1,
735.8,79029.4,79029.4,
735.4,79155.9,79155.9,
735,79591.2,79591.2,
734.6,79679.4,79679.4,
734.2,79452.9,79452.9,
733.8,79108.8,79108.8,
733.4,79232.4,79232.4,
733,80158.8,80158.8,
732.6,79629.4,79629.4,
732.2,80547.1,80547.1,
731.8,80173.5,80173.5,
731.4,80885.3,80885.3,
731,80076.5,80076.5,
730.6,80988.2,80988.2,
730.2,79367.6,79367.6,
729.8,80191.2,80191.2,
729.4,80641.2,80641.2,
729,80120.6,80120.6,
728.6,79711.8,79711.8,
728.2,81014.7,81014.7,
727.8,79694.1,79694.1,
727.4,80514.7,80514.7,
727,80735.3,80735.3,
726.6,80267.6,80267.6,
726.2,79970.6,79970.6,
725.8,79888.2,79888.2,
725.4,80691.2,80691.2,
725,80958.8,80958.8,
724.6,81367.6,81367.6,
724.2,81685.3,81685.3,
723.8,80567.6,80567.6,
723.4,81129.4,81129.4,
723,80350,80350,
722.6,81144.1,81144.1,
722.2,81047.1,81047.1,
721.8,80850,80850,
721.4,82102.9,82102.9,
721,81808.8,81808.8,
720.6,81391.2,81391.2,
720.2,81397.1,81397.1,
719.8,82814.7,82814.7,
719.4,81341.2,81341.2,
719,81408.8,81408.8,
718.6,80950,80950,
718.2,82441.2,82441.2,
717.8,82000,82000,
717.4,82455.9,82455.9,
717,82297.1,82297.1,
716.6,81811.8,81811.8,
716.2,81379.4,81379.4,
715.8,81988.2,81988.2,
715.4,82170.6,82170.6,
715,82700,82700,
714.6,81591.2,81591.2,
714.2,81911.8,81911.8,
713.8,82170.6,82170.6,
713.4,82685.3,82685.3,
713,82385.3,82385.3,
712.6,82361.8,82361.8,
712.2,83182.4,83182.4,
711.8,83897.1,83897.1,
711.4,83211.8,83211.8,
711,82217.6,82217.6,
710.6,83620.6,83620.6,
710.2,83158.8,83158.8,
709.8,82973.5,82973.5,
709.4,83591.2,83591.2,
709,83970.6,83970.6,
708.6,82800,82800,
708.2,83020.6,83020.6,
707.8,82632.4,82632.4,
707.4,83064.7,83064.7,
707,83888.2,83888.2,
706.6,82905.9,82905.9,
706.2,83391.2,83391.2,
705.8,83905.9,83905.9,
705.4,84447.1,84447.1,
705,84223.5,84223.5,
704.6,83532.4,83532.4,
704.2,83864.7,83864.7,
703.8,84485.3,84485.3,
703.4,84820.6,84820.6,
703,85070.6,85070.6,
702.6,83905.9,83905.9,
702.2,83688.2,83688.2,
701.8,84011.8,84011.8,
701.4,84564.7,84564.7,
701,85011.8,85011.8,
700.6,85105.9,85105.9,
700.2,84467.6,84467.6,
699.8,84667.6,84667.6,
699.4,84976.5,84976.5,
699,85044.1,85044.1,
698.6,84132.4,84132.4,
698.2,85450,85450,
697.8,85555.9,85555.9,
697.4,84876.5,84876.5,
697,84732.4,84732.4,
696.6,85976.5,85976.5,
696.2,85800,85800,
695.8,85408.8,85408.8,
695.4,86441.2,86441.2,
695,84658.8,84658.8,
694.6,85914.7,85914.7,
694.2,86194.1,86194.1,
693.8,85552.9,85552.9,
693.4,85361.8,85361.8,
693,85661.8,85661.8,
692.6,85344.1,85344.1,
692.2,86447.1,86447.1,
691.8,85994.1,85994.1,
691.4,86382.4,86382.4,
691,86191.2,86191.2,
690.6,86070.6,86070.6,
690.2,85447.1,85447.1,
689.8,86426.5,86426.5,
689.4,87167.6,87167.6,
689,87214.7,87214.7,
688.6,87941.2,87941.2,
688.2,87261.8,87261.8,
687.8,86358.8,86358.8,
687.4,86785.3,86785.3,
687,86585.3,86585.3,
686.6,86941.2,86941.2,
686.2,86288.2,86288.2,
685.8,88067.6,88067.6,
685.4,88176.5,88176.5,
685,87135.3,87135.3,
684.6,88123.5,88123.5,
684.2,87532.4,87532.4,
683.8,86985.3,86985.3,
683.4,87638.2,87638.2,
683,86955.9,86955.9,
682.6,88000,88000,
682.2,88326.5,88326.5,
681.8,87917.6,87917.6,
681.4,87505.9,87505.9,
681,88147.1,88147.1,
680.6,89535.3,89535.3,
680.2,88491.2,88491.2,
679.8,88717.6,88717.6,
679.4,89038.2,89038.2,
679,89008.8,89008.8,
678.6,88832.4,88832.4,
678.2,88488.2,88488.2,
677.8,89135.3,89135.3,
677.4,88976.5,88976.5,
677,89691.2,89691.2,
676.6,89305.9,89305.9,
676.2,89594.1,89594.1,
675.8,89714.7,89714.7,
675.4,90029.4,90029.4,
675,90141.2,90141.2,
674.6,89014.7,89014.7,
674.2,89285.3,89285.3,
673.8,89488.2,89488.2,
673.4,89576.5,89576.5,
673,90261.8,90261.8,
672.6,90867.6,90867.6,
672.2,89750,89750,
671.8,91326.5,91326.5,
671.4,90594.1,90594.1,
671,90364.7,90364.7,
670.6,90823.5,90823.5,
670.2,90161.8,90161.8,
669.8,90200,90200,
669.4,90914.7,90914.7,
669,90688.2,90688.2,
668.6,91114.7,91114.7,
668.2,90617.6,90617.6,
667.8,91582.4,91582.4,
667.4,90841.2,90841.2,
667,91191.2,91191.2,
666.6,91623.5,91623.5,
666.2,91444.1,91444.1,
665.8,91488.2,91488.2,
665.4,91270.6,91270.6,
665,91305.9,91305.9,
664.6,91194.1,91194.1,
664.2,92044.1,92044.1,
663.8,92041.2,92041.2,
663.4,90982.4,90982.4,
663,91882.4,91882.4,
662.6,92400,92400,
662.2,90841.2,90841.2,
661.8,91838.2,91838.2,
661.4,92905.9,92905.9,
661,90917.6,90917.6,
660.6,92823.5,92823.5,
660.2,91897.1,91897.1,
659.8,91958.8,91958.8,
659.4,93179.4,93179.4,
659,91552.9,91552.9,
658.6,92241.2,92241.2,
658.2,91858.8,91858.8,
657.8,92511.8,92511.8,
657.4,92150,92150,
657,93073.5,93073.5,
656.6,92235.3,92235.3,
656.2,92400,92400,
655.8,93373.5,93373.5,
655.4,91888.2,91888.2,
655,92702.9,92702.9,
654.6,92741.2,92741.2,
654.2,92450,92450,
653.8,91876.5,91876.5,
653.4,93450,93450,
653,93402.9,93402.9,
652.6,93605.9,93605.9,
652.2,92908.8,92908.8,
651.8,94079.4,94079.4,
651.4,92832.4,92832.4,
651,93991.2,93991.2,
650.6,94455.9,94455.9,
650.2,94250,94250,
649.8,94767.6,94767.6,
649.4,94017.6,94017.6,
649,94161.8,94161.8,
648.6,94755.9,94755.9,
648.2,96317.6,96317.6,
647.8,97205.9,97205.9,
647.4,95935.3,95935.3,
647,97308.8,97308.8,
646.6,97579.4,97579.4,
646.2,97961.8,97961.8,
645.8,98079.4,98079.4,
645.4,98164.7,98164.7,
645,99285.3,99285.3,
644.6,101062,101062,
644.2,101609,101609,
643.8,101041,101041,
643.4,103082,103082,
643,103059,103059,
642.6,103238,103238,
642.2,103559,103559,
641.8,103538,103538,
641.4,103638,103638,
641,103309,103309,
640.6,101562,101562,
640.2,101635,101635,
639.8,101138,101138,
639.4,99458.8,99458.8,
639,99011.8,99011.8,
638.6,97705.9,97705.9,
638.2,95970.6,95970.6,
637.8,95932.4,95932.4,
637.4,95838.2,95838.2,
637,94479.4,94479.4,
636.6,93317.6,93317.6,
636.2,94923.5,94923.5,
635.8,93782.4,93782.4,
635.4,93250,93250,
635,92605.9,92605.9,
634.6,93614.7,93614.7,
634.2,92858.8,92858.8,
633.8,92917.6,92917.6,
633.4,92070.6,92070.6,
633,91205.9,91205.9,
632.6,91947.1,91947.1,
632.2,92479.4,92479.4,
631.8,91526.5,91526.5,
631.4,91867.6,91867.6,
631,91573.5,91573.5,
630.6,92544.1,92544.1,
630.2,91850,91850,
629.8,91582.4,91582.4,
629.4,91770.6,91770.6,
629,91776.5,91776.5,
628.6,91576.5,91576.5,
628.2,91585.3,91585.3,
627.8,91126.5,91126.5,
627.4,92161.8,92161.8,
627,92152.9,92152.9,
626.6,92114.7,92114.7,
626.2,91108.8,91108.8,
625.8,92805.9,92805.9,
625.4,91085.3,91085.3,
625,92358.8,92358.8,
624.6,91641.2,91641.2,
624.2,91826.5,91826.5,
623.8,91882.4,91882.4,
623.4,91938.2,91938.2,
623,91952.9,91952.9,
622.6,91423.5,91423.5,
622.2,92129.4,92129.4,
621.8,91823.5,91823.5,
621.4,92132.4,92132.4,
621,91279.4,91279.4,
620.6,92620.6,92620.6,
620.2,91602.9,91602.9,
619.8,92176.5,92176.5,
619.4,92276.5,92276.5,
619,93300,93300,
618.6,93264.7,93264.7,
618.2,91832.4,91832.4,
617.8,92673.5,92673.5,
617.4,92182.4,92182.4,
617,91991.2,91991.2,
616.6,92452.9,92452.9,
616.2,91870.6,91870.6,
615.8,93685.3,93685.3,
615.4,92779.4,92779.4,
615,93250,93250,
614.6,93058.8,93058.8,
614.2,92823.5,92823.5,
613.8,94014.7,94014.7,
613.4,93826.5,93826.5,
613,93614.7,93614.7,
612.6,94097.1,94097.1,
612.2,93326.5,93326.5,
611.8,93676.5,93676.5,
611.4,94835.3,94835.3,
611,93023.5,93023.5,
610.6,93729.4,93729.4,
610.2,93129.4,93129.4,
609.8,93573.5,93573.5,
609.4,93658.8,93658.8,
609,94697.1,94697.1,
608.6,94282.4,94282.4,
608.2,94214.7,94214.7,
607.8,94605.9,94605.9,
607.4,94991.2,94991.2,
607,94820.6,94820.6,
606.6,94847.1,94847.1,
606.2,95111.8,95111.8,
605.8,95688.2,95688.2,
605.4,95567.6,95567.6,
605,95082.4,95082.4,
604.6,94788.2,94788.2,
604.2,94173.5,94173.5,
603.8,94273.5,94273.5,
603.4,95426.5,95426.5,
603,95947.1,95947.1,
602.6,95255.9,95255.9,
602.2,96161.8,96161.8,
601.8,95985.3,95985.3,
601.4,95638.2,95638.2,
601,95979.4,95979.4,
600.6,95826.5,95826.5,
600.2,96050,96050,
599.8,95550,95550,
599.4,96970.6,96970.6,
599,96370.6,96370.6,
598.6,96714.7,96714.7,
598.2,96285.3,96285.3,
597.8,96826.5,96826.5,
597.4,97802.9,97802.9,
597,96873.5,96873.5,
596.6,97661.8,97661.8,
596.2,97223.5,97223.5,
595.8,97282.4,97282.4,
595.4,97182.4,97182.4,
595,97688.2,97688.2,
594.6,98220.6,98220.6,
594.2,97826.5,97826.5,
593.8,98102.9,98102.9,
593.4,98205.9,98205.9,
593,98517.6,98517.6,
592.6,97914.7,97914.7,
592.2,98667.6,98667.6,
591.8,97994.1,97994.1,
591.4,99050,99050,
591,99482.4,99482.4,
590.6,99535.3,99535.3,
590.2,98297.1,98297.1,
589.8,98782.4,98782.4,
589.4,98717.6,98717.6,
589,98176.5,98176.5,
588.6,99555.9,99555.9,
588.2,99661.8,99661.8,
587.8,99173.5,99173.5,
587.4,99773.5,99773.5,
587,99947.1,99947.1,
586.6,99567.6,99567.6,
586.2,100762,100762,
585.8,99517.6,99517.6,
585.4,99820.6,99820.6,
585,99088.2,99088.2,
584.6,100391,100391,
584.2,100068,100068,
583.8,100926,100926,
583.4,100847,100847,
583,100671,100671,
582.6,100079,100079,
582.2,100700,100700,
581.8,101503,101503,
581.4,101821,101821,
581,101424,101424,
580.6,101082,101082,
580.2,102444,102444,
579.8,100976,100976,
579.4,102438,102438,
579,101885,101885,
578.6,102285,102285,
578.2,102229,102229,
577.8,103526,103526,
577.4,102332,102332,
577,102391,102391,
576.6,104141,104141,
576.2,102906,102906,
575.8,103762,103762,
575.4,102874,102874,
575,103853,103853,
574.6,103553,103553,
574.2,104029,104029,
573.8,104321,104321,
573.4,104100,104100,
573,104741,104741,
572.6,103632,103632,
572.2,103847,103847,
571.8,105668,105668,
571.4,105012,105012,
571,105029,105029,
570.6,106259,106259,
570.2,104688,104688,
569.8,106574,106574,
569.4,104709,104709,
569,104632,104632,
568.6,105765,105765,
568.2,105091,105091,
567.8,105568,105568,
567.4,105532,105532,
567,105418,105418,
566.6,104706,104706,
566.2,105000,105000,
565.8,105944,105944,
565.4,105191,105191,
565,105629,105629,
564.6,104244,104244,
564.2,104935,104935,
563.8,105862,105862,
563.4,104926,104926,
563,103715,103715,
562.6,105426,105426,
562.2,105050,105050,
561.8,104659,104659,
561.4,104997,104997,
561,105174,105174,
560.6,104888,104888,
560.2,104441,104441,
559.8,104506,104506,
559.4,105082,105082,
559,103900,103900,
558.6,103465,103465,
558.2,103612,103612,
557.8,104359,104359,
557.4,104550,104550,
557,104809,104809,
556.6,104418,104418,
556.2,105318,105318,
555.8,104918,104918,
555.4,106050,106050,
555,106056,106056,
554.6,104818,104818,
554.2,106038,106038,
553.8,106562,106562,
553.4,106556,106556,
553,107653,107653,
552.6,108485,108485,
552.2,108232,108232,
551.8,110779,110779,
551.4,110168,110168,
551,112176,112176,
550.6,114421,114421,
550.2,115947,115947,
549.8,120585,120585,
549.4,121768,121768,
549,125547,125547,
548.6,129621,129621,
548.2,133297,133297,
547.8,137306,137306,
547.4,142053,142053,
547,145018,145018,
546.6,148071,148071,
546.2,149806,149806,
545.8,149188,149188,
545.4,145503,145503,
545,142032,142032,
544.6,135750,135750,
544.2,131250,131250,
543.8,125047,125047,
543.4,121344,121344,
543,115721,115721,
542.6,112185,112185,
542.2,108674,108674,
541.8,105132,105132,
541.4,104624,104624,
541,100991,100991,
540.6,101256,101256,
540.2,98361.8,98361.8,
539.8,96473.5,96473.5,
539.4,96082.4,96082.4,
539,95464.7,95464.7,
538.6,94450,94450,
538.2,92911.8,92911.8,
537.8,91879.4,91879.4,
537.4,92035.3,92035.3,
537,91797.1,91797.1,
536.6,91232.4,91232.4,
536.2,90814.7,90814.7,
535.8,90844.1,90844.1,
535.4,90364.7,90904.9,
535,91505.9,90615,
534.6,91205.9,90324.2,
534.2,93135.3,90032.8,
533.8,94370.6,89746.7,
533.4,96023.5,89470.3,
533,99447.1,89208.8,
532.6,100026,88972,
532.2,101512,88762.5,
531.8,99755.9,88585,
531.4,101000,88435.5,
531,98911.8,88317.9,
530.6,98450,88227.3,
530.2,97711.8,88163,
529.8,95767.6,88123.2,
529.4,92411.8,88103.1,
529,89941.2,88094.1,
528.6,89220.6,88089.9,
528.2,87629.4,88088.6,
527.8,88594.1,88087.3,
527.4,87667.6,88087.3,
527,88000,88000,
526.6,86797.1,86797.1,
526.2,87970.6,87970.6,
525.8,86917.6,86917.6,
525.4,87573.5,87573.5,
525,88397.1,88397.1,
524.6,87511.8,87511.8,
524.2,87050,87050,
523.8,87200,87200,
523.4,87426.5,87426.5,
523,87511.8,87511.8,
522.6,87494.1,87494.1,
522.2,87211.8,87211.8,
521.8,87235.3,87235.3,
521.4,87414.7,87414.7,
521,87682.4,87682.4,
520.6,87223.5,87223.5,
520.2,88476.5,88476.5,
519.8,88370.6,88370.6,
519.4,87688.2,87688.2,
519,88255.9,88255.9,
518.6,88685.3,88685.3,
518.2,88064.7,88064.7,
517.8,88832.4,88832.4,
517.4,87117.6,87117.6,
517,88941.2,88941.2,
516.6,88235.3,88235.3,
516.2,88276.5,88276.5,
515.8,88170.6,88170.6,
515.4,87217.6,87217.6,
515,88217.6,88217.6,
514.6,88579.4,88579.4,
514.2,87402.9,87402.9,
513.8,88944.1,88944.1,
513.4,88026.5,88026.5,
513,88344.1,88344.1,
512.6,88588.2,88588.2,
512.2,89241.2,89241.2,
511.8,88073.5,88073.5,
511.4,88038.2,88038.2,
511,89261.8,89261.8,
510.6,88338.2,88338.2,
510.2,88982.4,88982.4,
509.8,88323.5,88323.5,
509.4,88894.1,88894.1,
509,88914.7,88914.7,
508.6,89629.4,89629.4,
508.2,89611.8,89611.8,
507.8,89238.2,89238.2,
507.4,89285.3,89285.3,
507,88535.3,88535.3,
506.6,88841.2,88841.2,
506.2,88888.2,88888.2,
505.8,88967.6,88967.6,
505.4,88458.8,88458.8,
505,89826.5,89826.5,
504.6,89497.1,89497.1,
504.2,89988.2,89988.2,
503.8,89988.2,89988.2,
503.4,89985.3,89985.3,
503,89085.3,89085.3,
502.6,89894.1,89894.1,
502.2,91285.3,91285.3,
501.8,90470.6,90470.6,
501.4,90435.3,90435.3,
501,91029.4,91029.4,
500.6,90464.7,90464.7,
500.2,90323.5,90323.5,
499.8,91300,91300,
499.4,90900,90900,
499,90497.1,90497.1,
498.6,90014.7,90014.7,
498.2,91423.5,91423.5,
497.8,90194.1,90194.1,
497.4,91117.6,91117.6,
497,91438.2,91438.2,
496.6,91482.4,91482.4,
496.2,91688.2,91688.2,
495.8,91473.5,91473.5,
495.4,91070.6,91070.6,
495,90291.2,90291.2,
494.6,91288.2,91288.2,
494.2,91029.4,91029.4,
493.8,90602.9,90602.9,
493.4,90797.1,90797.1,
493,91817.6,91817.6,
492.6,91352.9,91352.9,
492.2,91485.3,91485.3,
491.8,92223.5,92223.5,
491.4,92685.3,92685.3,
491,92361.8,92361.8,
490.6,91876.5,91876.5,
490.2,91764.7,91764.7,
489.8,91720.6,91720.6,
489.4,92923.5,92923.5,
489,92935.3,92935.3,
488.6,92758.8,92758.8,
488.2,93100,93100,
487.8,92347.1,92347.1,
487.4,92711.8,92711.8,
487,92605.9,92605.9,
486.6,93358.8,93358.8,
486.2,93452.9,93452.9,
485.8,93470.6,93470.6,
485.4,92902.9,92902.9,
485,94617.6,94617.6,
484.6,92838.2,92838.2,
484.2,93855.9,93855.9,
483.8,94182.4,94182.4,
483.4,93670.6,93670.6,
483,93867.6,93867.6,
482.6,94470.6,94470.6,
482.2,94632.4,94632.4,
481.8,93535.3,93535.3,
481.4,94258.8,94258.8,
481,93464.7,93464.7,
480.6,93285.3,93285.3,
480.2,94044.1,94044.1,
479.8,94847.1,94847.1,
479.4,94055.9,94055.9,
479,94791.2,94791.2,
478.6,94291.2,94291.2,
478.2,94726.5,94726.5,
477.8,94717.6,94717.6,
477.4,95232.4,95232.4,
477,94923.5,94923.5,
476.6,95020.6,95020.6,
476.2,95323.5,95323.5,
475.8,95650,95650,
475.4,94814.7,94814.7,
475,95029.4,95029.4,
474.6,95844.1,95844.1,
474.2,95300,95300,
473.8,95947.1,95947.1,
473.4,95341.2,95341.2,
473,97161.8,97161.8,
472.6,96467.6,96467.6,
472.2,95911.8,95911.8,
471.8,95823.5,95823.5,
471.4,95788.2,95788.2,
471,95641.2,95641.2,
470.6,95297.1,95297.1,
470.2,95752.9,95752.9,
469.8,96567.6,96567.6,
469.4,97076.5,97076.5,
469,96341.2,96341.2,
468.6,96879.4,96879.4,
468.2,96338.2,96338.2,
467.8,97476.5,97476.5,
467.4,97814.7,97814.7,
467,96764.7,96764.7,
466.6,97544.1,97544.1,
466.2,97035.3,97035.3,
465.8,97985.3,97985.3,
465.4,96685.3,96685.3,
465,97261.8,97261.8,
464.6,97185.3,97185.3,
464.2,97432.4,97432.4,
463.8,98341.2,98341.2,
463.4,98755.9,98755.9,
463,97085.3,97085.3,
462.6,99085.3,99085.3,
462.2,97270.6,97270.6,
461.8,98582.4,98582.4,
461.4,98035.3,98035.3,
461,97932.4,97932.4,
460.6,98505.9,98505.9,
460.2,98750,98750,
459.8,98720.6,98720.6,
459.4,98761.8,98761.8,
459,99102.9,99102.9,
458.6,98008.8,98008.8,
458.2,99126.5,99126.5,
457.8,99602.9,99602.9,
457.4,99941.2,99941.2,
457,99335.3,99335.3,
456.6,99670.6,99670.6,
456.2,99526.5,99526.5,
455.8,99761.8,99761.8,
455.4,99914.7,99914.7,
455,100259,100259,
454.6,101147,101147,
454.2,99002.9,99002.9,
453.8,99420.6,99420.6,
453.4,99747.1,99747.1,
453,99661.8,99661.8,
452.6,101247,101247,
452.2,100674,100674,
451.8,100174,100174,
451.4,100862,100862,
451,101076,101076,
450.6,100724,100724,
450.2,101659,101659,
449.8,101282,101282,
449.4,100391,100391,
449,101641,101641,
448.6,101615,101615,
448.2,102141,102141,
447.8,101300,101300,
447.4,100874,100874,
447,101932,101932,
446.6,102679,102679,
446.2,102106,102106,
445.8,101544,101544,
445.4,102221,102221,
445,102050,102050,
444.6,102300,102300,
444.2,102888,102888,
443.8,102662,102662,
443.4,102815,102815,
443,102594,102594,
442.6,102885,102885,
442.2,104109,104109,
441.8,103509,103509,
441.4,105038,105038,
441,103926,103926,
440.6,103785,103785,
440.2,103932,103932,
439.8,104506,104506,
439.4,104215,104215,
439,103788,103788,
438.6,104650,104650,
438.2,103835,103835,
437.8,105732,105732,
437.4,104676,104676,
437,105444,105444,
436.6,106035,106035,
436.2,104782,104782,
435.8,105603,105603,
435.4,106553,106553,
435,105979,105979,
434.6,105832,105832,
434.2,106171,106171,
433.8,105624,105624,
433.4,105935,105935,
433,106376,106376,
432.6,105000,105000,
432.2,106541,106541,
431.8,105753,105753,
431.4,107653,107653,
431,106641,106641,
430.6,106268,106268,
430.2,106474,106474,
429.8,106741,106741,
429.4,107015,107015,
429,107000,107000,
428.6,107085,107085,
428.2,106791,106791,
427.8,106565,106565,
427.4,106735,106735,
427,106621,106621,
426.6,106962,106962,
426.2,108168,108168,
425.8,108447,108447,
425.4,107579,107579,
425,108826,108826,
424.6,108985,108985,
424.2,108397,108397,
423.8,109368,109368,
423.4,109250,109250,
423,108891,108891,
422.6,108753,108753,
422.2,109400,109400,
421.8,109579,109579,
421.4,110141,110141,
421,109185,109185,
420.6,109821,109821,
420.2,111094,111094,
419.8,111229,111229,
419.4,110606,110606,
419,111191,111191,
418.6,110147,110147,
418.2,110794,110794,
417.8,111803,111803,
417.4,112368,112368,
417,110497,110497,
416.6,112153,112153,
416.2,111509,111509,
415.8,112488,112488,
415.4,113068,113068,
415,113394,113394,
414.6,112774,112774,
414.2,112344,112344,
413.8,112826,112826,
413.4,111665,111665,
413,112618,112618,
412.6,112932,112932,
412.2,112944,112944,
411.8,113518,113518,
411.4,113203,113203,
411,113544,113544,
410.6,113615,113615,
410.2,114079,114079,
409.8,113624,113624,
409.4,114529,114529,
409,115135,115135,
408.6,115241,115241,
408.2,114571,114571,
407.8,114909,114909,
407.4,114459,114459,
407,115188,115188,
406.6,115415,115415,
406.2,115803,115803,
405.8,115679,115679,
405.4,114965,114965,
405,115635,115635,
404.6,115574,115574,
404.2,115865,115865,
403.8,116297,116297,
403.4,117344,117344,
403,116591,116591,
402.6,117474,117474,
402.2,116847,116847,
401.8,117374,117374,
401.4,118135,118135,
401,116915,116915,
400.6,118229,118229,
400.2,119794,119794,
399.8,118338,118338,
399.4,117918,117918,
399,119124,119124,
398.6,119306,119306,
398.2,119844,119844,
397.8,120600,120600,
397.4,119921,119921,
397,120294,120294,
396.6,120203,120203,
396.2,119488,119488,
395.8,119903,119903,
395.4,120838,120838,
395,119626,119626,
394.6,119991,119991,
394.2,120450,120450,
393.8,121659,121659,
393.4,121685,121685,
393,120921,120921,
392.6,121747,121747,
392.2,122100,122100,
391.8,121129,121129,
391.4,121188,121188,
391,121918,121918,
390.6,122144,122144,
390.2,122379,122379,
389.8,123571,123571,
389.4,122685,122685,
389,123041,123041,
388.6,124641,124641,
388.2,125044,125044,
387.8,124618,124618,
387.4,124576,124576,
387,125344,125344,
386.6,125438,125438,
386.2,126153,126153,
385.8,125765,125765,
385.4,125726,125726,
385,126829,126829,
384.6,126635,126635,
384.2,126856,126856,
383.8,126650,126650,
383.4,126218,126218,
383,127009,127009,
382.6,128985,128985,
382.2,128162,128162,
381.8,128679,128679,
381.4,128326,128326,
381,128662,128662,
380.6,128571,128571,
380.2,129212,129212,
379.8,129397,129397,
379.4,130653,130653,
379,130826,130826,
378.6,130476,130476,
378.2,129621,129621,
377.8,130235,130235,
377.4,130341,130341,
377,130459,130459,
376.6,130871,130871,
376.2,131768,131768,
375.8,130700,130700,
375.4,132185,132185,
375,131168,131168,
374.6,132353,132353,
374.2,130500,130500,
373.8,131338,131338,
373.4,130088,130088,
373,131291,131291,
372.6,132476,132476,
372.2,131488,131488,
371.8,132844,132844,
371.4,133403,133403,
371,132571,132571,
370.6,133141,133141,
370.2,133088,133088,
369.8,133006,133006,
369.4,132706,132706,
369,132394,132394,
368.6,131182,131182,
368.2,132956,132956,
367.8,133038,133038,
367.4,132621,132621,
367,132812,132812,
366.6,132756,132756,
366.2,132047,132047,
365.8,132582,132582,
365.4,132938,132938,
365,133994,133994,
364.6,133026,133026,
364.2,134132,134132,
363.8,133382,133382,
363.4,133194,133194,
363,134782,134782,
362.6,132700,132700,
362.2,135435,135435,
361.8,134068,134068,
361.4,135476,135476,
361,136838,136838,
360.6,137015,137015,
360.2,137682,137682,
359.8,140044,140044,
359.4,141097,141097,
359,140891,140891,
358.6,142062,142062,
358.2,146362,146362,
357.8,146865,146865,
357.4,149409,149409,
357,153350,153350,
356.6,157991,157991,
356.2,161874,161874,
355.8,167044,167044,
355.4,176494,176494,
355,184232,184232,
354.6,192065,192065,
354.2,203076,203076,
353.8,212012,212012,
353.4,216121,216121,
353,217088,217088,
352.6,214594,214594,
352.2,206659,206659,
351.8,196065,196065,
351.4,183924,183924,
351,174271,174271,
350.6,160947,160947,
350.2,153994,153994,
349.8,145859,145859,
349.4,138738,138738,
349,134859,134859,
348.6,128094,128094,
348.2,125594,125594,
347.8,121612,121612,
347.4,118341,118341,
347,116803,116803,
346.6,114485,114485,
346.2,113418,113418,
345.8,111038,111038,
345.4,109850,109850,
345,107779,107779,
344.6,106847,106847,
344.2,107418,106825,
343.8,106212,105624,
343.4,106641,104359,
343,106159,103031,
342.6,106112,101639,
342.2,107544,100185,
341.8,108109,98670.3,
341.4,110038,97098,
341,111412,95472,
340.6,114900,93796.4,
340.2,115771,92077.6,
339.8,120159,90320.2,
339.4,125106,88532.6,
339,128541,86724.1,
338.6,134900,84903.1,
338.2,143212,83081,
337.8,152209,81271.8,
337.4,162441,79490.1,
337,177144,77752.1,
336.6,193374,76078.5,
336.2,209479,74491.6,
335.8,223291,73013.1,
335.4,236912,71662.6,
335,240306,70458.6,
334.6,236079,69409.2,
334.2,223409,68514,
333.8,205221,67763.7,
333.4,184715,67142.9,
333,165003,66633.3,
332.6,146724,66216.9,
332.2,132712,65876.9,
331.8,121218,65600.6,
331.4,110635,65377.4,
331,102724,65197.6,
330.6,95467.6,65053.8,
330.2,91029.4,64939.5,
329.8,86208.8,64850.4,
329.4,81891.2,64782.2,
329,78900,64730.7,
328.6,75573.5,64693.2,
328.2,73176.5,64666.5,
327.8,71132.4,64648.2,
327.4,70302.9,64636.4,
327,67655.9,64630.2,
326.6,66494.1,64627.1,
326.2,65438.2,64625.9,
325.8,65032.4,64625.5,
325.4,63405.9,63405.9,
325,62038.2,62038.2,
324.6,61635.3,61635.3,
324.2,60717.6,60717.6,
323.8,60852.9,60852.9,
323.4,59676.5,59676.5,
323,60155.9,60155.9,
322.6,58811.8,58811.8,
322.2,58755.9,58755.9,
321.8,58664.7,58664.7,
321.4,58414.7,58414.7,
321,57847.1,57847.1,
320.6,57564.7,57564.7,
320.2,57811.8,57811.8,
319.8,57064.7,57064.7,
319.4,57473.5,57473.5,
319,57082.4,57082.4,
318.6,57385.3,57385.3,
318.2,57179.4,57179.4,
317.8,57135.3,57135.3,
317.4,56744.1,56744.1,
317,56741.2,56741.2,
316.6,56252.9,56252.9,
316.2,55720.6,55720.6,
315.8,55764.7,55764.7,
315.4,56200,56200,
315,55914.7,55914.7,
314.6,56529.4,56529.4,
314.2,55814.7,55814.7,
313.8,56005.9,56005.9,
313.4,55841.2,55841.2,
313,56141.2,56141.2,
312.6,55755.9,55755.9,
312.2,55029.4,55029.4,
311.8,56791.2,56791.2,
311.4,55370.6,55370.6,
311,55364.7,55364.7,
310.6,56038.2,56038.2,
310.2,55488.2,55488.2,
309.8,55738.2,55738.2,
309.4,55611.8,55611.8,
309,55579.4,55579.4,
308.6,55008.8,55008.8,
308.2,55664.7,55664.7,
307.8,55538.2,55538.2,
307.4,55826.5,55826.5,
307,55897.1,55897.1,
306.6,55632.4,55632.4,
306.2,55785.3,55785.3,
305.8,56076.5,56076.5,
305.4,55658.8,55658.8,
305,56505.9,56505.9,
304.6,55229.4,55229.4,
304.2,56064.7,56064.7,
303.8,55300,55300,
303.4,56685.3,56685.3,
303,56167.6,56167.6,
302.6,55444.1,55444.1,
302.2,55191.2,55191.2,
301.8,55455.9,55455.9,
301.4,55855.9,55855.9,
301,55261.8,55261.8,
300.6,55444.1,55444.1,
300.2,55091.2,55091.2,
299.8,54952.9,54952.9,
299.4,55485.3,55485.3,
299,55114.7,55114.7,
298.6,54623.5,54623.5,
298.2,54832.4,54832.4,
297.8,56252.9,56252.9,
297.4,56041.2,56041.2,
297,55661.8,55661.8,
296.6,54402.9,54402.9,
296.2,55247.1,55247.1,
295.8,55244.1,55244.1,
295.4,54600,54600,
295,54608.8,54608.8,
294.6,55150,55150,
294.2,54991.2,54991.2,
293.8,54538.2,54538.2,
293.4,54576.5,54576.5,
293,55379.4,55379.4,
292.6,54902.9,54902.9,
292.2,54461.8,54461.8,
291.8,55108.8,55108.8,
291.4,55308.8,55308.8,
291,55255.9,55255.9,
290.6,55332.4,55447.1,
290.2,55752.9,55438.1,
289.8,55879.4,55428.5,
289.4,56288.2,55418.5,
289,56597.1,55407.9,
288.6,57135.3,55396.8,
288.2,57891.2,55385.4,
287.8,57188.2,55373.6,
287.4,58905.9,55361.5,
287,59364.7,55349.3,
286.6,60150,55337,
286.2,61247.1,55324.6,
285.8,63411.8,55312.4,
285.4,66850,55300.4,
285,74597.1,55289,
284.6,85647.1,55278.7,
284.2,96782.4,55270.3,
283.8,96100,55264.4,
283.4,84644.1,55261.2,
283,69647.1,55259.7,
282.6,60617.6,55259.2,
282.2,56432.4,55259,
281.8,56352.9,55258.9,
281.4,55879.4,55258.8,
281,55388.2,55258.8,
280.6,55226.5,55258.8,
280.2,55135.3,55258.8,
279.8,55414.7,55414.7,
279.4,54894.1,54894.1,
279,54947.1,54947.1,
278.6,55232.4,55232.4,
278.2,54655.9,54655.9,
277.8,55452.9,55452.9,
277.4,54617.6,54617.6,
277,54802.9,54802.9,
276.6,54388.2,54388.2,
276.2,54667.6,54667.6,
275.8,55005.9,55005.9,
275.4,54917.6,54917.6,
275,54138.2,54138.2,
274.6,55267.6,55267.6,
274.2,54950,54950,
273.8,55158.8,55158.8,
273.4,55167.6,55167.6,
273,55679.4,55679.4,
272.6,55002.9,55002.9,
272.2,55382.4,55382.4,
271.8,55126.5,55126.5,
271.4,55261.8,55261.8,
271,54879.4,54879.4,
270.6,55179.4,55179.4,
270.2,55900,55900,
269.8,55867.6,55867.6,
269.4,55961.8,55961.8,
269,55529.4,55529.4,
268.6,55902.9,55902.9,
268.2,54926.5,54926.5,
267.8,55632.4,55632.4,
267.4,55926.5,55926.5,
267,56385.3,56385.3,
266.6,56367.6,56367.6,
266.2,55673.5,55673.5,
265.8,56470.6,56470.6,
265.4,55547.1,55547.1,
265,55579.4,55579.4,
264.6,56094.1,56094.1,
264.2,55564.7,55564.7,
263.8,56776.5,56776.5,
263.4,56467.6,56467.6,
263,57373.5,57373.5,
262.6,56332.4,56332.4,
262.2,56773.5,56773.5,
261.8,56235.3,56235.3,
261.4,56561.8,56561.8,
261,56135.3,56135.3,
260.6,56576.5,56576.5,
260.2,57076.5,57076.5,
259.8,56258.8,56258.8,
259.4,56832.4,56832.4,
259,56758.8,56758.8,
258.6,56973.5,56973.5,
258.2,56347.1,56347.1,
257.8,56350,56350,
257.4,56802.9,56802.9,
257,58073.5,58073.5,
256.6,57673.5,57673.5,
256.2,56452.9,56452.9,
255.8,56661.8,56661.8,
255.4,56817.6,56817.6,
255,56835.3,56835.3,
254.6,57120.6,57120.6,
254.2,57314.7,57314.7,
253.8,57297.1,57297.1,
253.4,57338.2,57338.2,
253,57376.5,57376.5,
252.6,57038.2,57038.2,
252.2,57835.3,57835.3,
251.8,57770.6,57770.6,
251.4,57352.9,57352.9,
251,58405.9,58405.9,
250.6,56800,56800,
250.2,57332.4,57332.4,
249.8,57664.7,57664.7,
249.4,57255.9,57255.9,
249,57902.9,57902.9,
248.6,57750,57750,
248.2,58064.7,58064.7,
247.8,58535.3,58535.3,
247.4,58217.6,58217.6,
247,58614.7,58614.7,
246.6,58223.5,58223.5,
246.2,58067.6,58067.6,
245.8,58070.6,58070.6,
245.4,58185.3,58185.3,
245,59073.5,59073.5,
244.6,59047.1,59047.1,
244.2,58967.6,58967.6,
243.8,59373.5,59373.5,
243.4,59026.5,59026.5,
243,58802.9,58802.9,
242.6,58341.2,58341.2,
242.2,59064.7,59064.7,
241.8,59123.5,59123.5,
241.4,58702.9,58702.9,
241,59405.9,59405.9,
240.6,58873.5,58873.5,
240.2,59141.2,59141.2,
239.8,58741.2,58741.2,
239.4,59126.5,59126.5,
239,59352.9,59352.9,
238.6,58705.9,58705.9,
238.2,59188.2,59188.2,
237.8,60335.3,60335.3,
237.4,59458.8,59458.8,
237,58897.1,58897.1,
236.6,60302.9,60302.9,
236.2,59826.5,59826.5,
235.8,59626.5,59626.5,
235.4,59802.9,59802.9,
235,59888.2,59888.2,
234.6,59676.5,59676.5,
234.2,60602.9,60602.9,
233.8,59838.2,59838.2,
233.4,59726.5,59726.5,
233,60264.7,60264.7,
232.6,59376.5,59376.5,
232.2,59588.2,59588.2,
231.8,60967.6,60967.6,
231.4,60147.1,60147.1,
231,60464.7,60464.7,
230.6,60667.6,60667.6,
230.2,60429.4,60429.4,
229.8,60300,60300,
229.4,60702.9,60702.9,
229,61570.6,61570.6,
228.6,60535.3,60535.3,
228.2,61552.9,61552.9,
227.8,60961.8,60961.8,
227.4,61511.8,61511.8,
227,61864.7,61864.7,
226.6,62241.2,62241.2,
226.2,61270.6,61270.6,
225.8,62570.6,62570.6,
225.4,61755.9,61755.9,
225,61582.4,61582.4,
224.6,62232.4,62232.4,
224.2,61967.6,61967.6,
223.8,62350,62350,
223.4,61170.6,61170.6,
223,61867.6,61867.6,
222.6,61123.5,61123.5,
222.2,61408.8,61408.8,
221.8,61270.6,61270.6,
221.4,61938.2,61938.2,
221,62029.4,62029.4,
220.6,61708.8,61708.8,
220.2,62526.5,62526.5,
219.8,62264.7,62264.7,
219.4,61382.4,61382.4,
219,61361.8,61361.8,
218.6,61952.9,61952.9,
218.2,62638.2,62638.2,
217.8,62164.7,62164.7,
217.4,61308.8,61308.8,
217,62420.6,62420.6,
216.6,62532.4,62532.4,
216.2,62773.5,62773.5,
215.8,62767.6,62767.6,
215.4,61879.4,61879.4,
215,63573.5,63573.5,
214.6,63420.6,63420.6,
214.2,62873.5,62873.5,
213.8,63344.1,63344.1,
213.4,63185.3,63185.3,
213,62873.5,62873.5,
212.6,62811.8,62811.8,
212.2,62482.4,62482.4,
211.8,63747.1,63747.1,
211.4,62873.5,62873.5,
211,63502.9,63502.9,
210.6,63617.6,63617.6,
210.2,62835.3,62835.3,
209.8,63626.5,63626.5,
209.4,64017.6,64017.6,
209,63191.2,63191.2,
208.6,64929.4,64929.4,
208.2,64200,64200,
207.8,63617.6,63617.6,
207.4,63502.9,63502.9,
207,64397.1,64397.1,
206.6,64732.4,64732.4,
206.2,64305.9,64305.9,
205.8,64376.5,64376.5,
205.4,64764.7,64764.7,
205,64120.6,64120.6,
204.6,65194.1,65194.1,
204.2,64561.8,64561.8,
203.8,64464.7,64464.7,
203.4,63897.1,63897.1,
203,65188.2,65188.2,
202.6,64944.1,64944.1,
202.2,64497.1,64497.1,
201.8,64920.6,64920.6,
201.4,65305.9,65305.9,
201,65070.6,65070.6,
200.6,64538.2,64538.2,
200.2,66120.6,66120.6,
199.8,65405.9,65405.9,
199.4,65750,65750,
199,66441.2,66441.2,
198.6,65911.8,65911.8,
198.2,65814.7,65814.7,
197.8,66220.6,66220.6,
197.4,66861.8,66861.8,
197,66429.4,66429.4,
196.6,66450,66450,
196.2,66679.4,66679.4,
195.8,65882.4,65882.4,
195.4,65579.4,65579.4,
195,65673.5,65673.5,
194.6,66238.2,66238.2,
194.2,66202.9,66202.9,
193.8,66364.7,66364.7,
193.4,67014.7,67014.7,
193,66441.2,66441.2,
192.6,67355.9,67355.9,
192.2,66073.5,66073.5,
191.8,67723.5,67723.5,
191.4,67197.1,67197.1,
191,67511.8,67511.8,
190.6,67473.5,67473.5,
190.2,68197.1,68197.1,
189.8,66823.5,66823.5,
189.4,67626.5,67626.5,
189,68373.5,68373.5,
188.6,68017.6,68017.6,
188.2,68344.1,68344.1,
187.8,68320.6,68320.6,
187.4,68473.5,68473.5,
187,67911.8,67911.8,
186.6,68244.1,68244.1,
186.2,68585.3,68585.3,
185.8,68161.8,68161.8,
185.4,69482.4,69482.4,
185,68905.9,68905.9,
184.6,68920.6,68920.6,
184.2,68761.8,68761.8,
183.8,68414.7,68414.7,
183.4,68405.9,68405.9,
183,69320.6,69320.6,
182.6,68873.5,68873.5,
182.2,69755.9,69755.9,
181.8,69832.4,69832.4,
181.4,70323.5,70323.5,
181,69947.1,69947.1,
180.6,70241.2,70241.2,
180.2,69438.2,69438.2,
179.8,69670.6,69670.6,
179.4,70170.6,70170.6,
179,70023.5,70023.5,
178.6,71588.2,71588.2,
178.2,70664.7,70664.7,
177.8,70276.5,70276.5,
177.4,70441.2,70441.2,
177,70982.4,70982.4,
176.6,70594.1,70594.1,
176.2,70747.1,70747.1,
175.8,71491.2,71491.2,
175.4,72164.7,72164.7,
175,71123.5,71123.5,
174.6,71167.6,71167.6,
174.2,71526.5,71526.5,
173.8,71591.2,71591.2,
173.4,71114.7,71114.7,
173,71970.6,71970.6,
172.6,72276.5,72276.5,
172.2,71502.9,71502.9,
171.8,71017.6,71017.6,
171.4,72294.1,72294.1,
171,71823.5,71823.5,
170.6,72088.2,72088.2,
170.2,72805.9,72805.9,
169.8,72402.9,72402.9,
169.4,72141.2,72141.2,
169,73561.8,73561.8,
168.6,73347.1,73347.1,
168.2,73835.3,73835.3,
167.8,72267.6,72267.6,
167.4,72829.4,72829.4,
167,73005.9,73005.9,
166.6,72411.8,72411.8,
166.2,73320.6,73320.6,
165.8,73591.2,73591.2,
165.4,73079.4,73079.4,
165,74055.9,74055.9,
164.6,74064.7,74064.7,
164.2,73988.2,73988.2,
163.8,74373.5,74373.5,
163.4,75014.7,75014.7,
163,75358.8,75358.8,
162.6,75655.9,75655.9,
162.2,76429.4,76429.4,
161.8,75473.5,75473.5,
161.4,75994.1,75994.1,
161,75711.8,75711.8,
160.6,75679.4,75679.4,
160.2,75423.5,75423.5,
159.8,74408.8,74408.8,
159.4,75420.6,75420.6,
159,75382.4,75382.4,
158.6,75061.8,75061.8,
158.2,75926.5,75926.5,
157.8,76023.5,76023.5,
157.4,76473.5,76473.5,
157,74947.1,74947.1,
156.6,75917.6,75917.6,
156.2,76776.5,76776.5,
155.8,76411.8,76411.8,
155.4,76026.5,76026.5,
155,77776.5,77776.5,
154.6,77505.9,77505.9,
154.2,77917.6,77917.6,
153.8,76900,76900,
153.4,77547.1,77547.1,
153,76620.6,76620.6,
152.6,77591.2,77591.2,
152.2,77308.8,77308.8,
151.8,77817.6,77817.6,
151.4,78488.2,78488.2,
151,77932.4,77932.4,
150.6,78176.5,78176.5,
150.2,78294.1,78294.1,
149.8,79061.8,79061.8,
149.4,79002.9,79002.9,
149,78891.2,78891.2,
148.6,78908.8,78908.8,
148.2,78852.9,78852.9,
147.8,78602.9,78602.9,
147.4,79329.4,79329.4,
147,80288.2,80288.2,
146.6,79226.5,79226.5,
146.2,79188.2,79188.2,
145.8,79773.5,79773.5,
145.4,79264.7,79264.7,
145,79773.5,79773.5,
144.6,79635.3,79635.3,
144.2,80488.2,80488.2,
143.8,80497.1,80497.1,
143.4,79835.3,79835.3,
143,79420.6,79420.6,
142.6,80955.9,80955.9,
142.2,80650,80650,
141.8,80655.9,80655.9,
141.4,81141.2,81141.2,
141,80591.2,80591.2,
140.6,80938.2,80938.2,
140.2,81464.7,81464.7,
139.8,82002.9,82002.9,
139.4,81832.4,81832.4,
139,82364.7,82364.7,
138.6,81750,81750,
138.2,82800,82800,
137.8,81867.6,81867.6,
137.4,82244.1,82244.1,
137,83305.9,83305.9,
136.6,81800,81800,
136.2,82508.8,82508.8,
135.8,82888.2,82888.2,
135.4,82852.9,82852.9,
135,83326.5,83326.5,
134.6,84061.8,84061.8,
134.2,84102.9,84102.9,
133.8,83532.4,83532.4,
133.4,83926.5,83926.5,
133,84361.8,84361.8,
132.6,84394.1,84394.1,
132.2,85844.1,85844.1,
131.8,85108.8,85108.8,
131.4,84991.2,84991.2,
131,85235.3,85235.3,
130.6,85276.5,85276.5,
130.2,85241.2,85241.2,
129.8,85076.5,85076.5,
129.4,85320.6,85320.6,
129,86811.8,86811.8,
128.6,86179.4,86179.4,
128.2,86535.3,86535.3,
127.8,86105.9,86105.9,
127.4,86217.6,86217.6,
127,87520.6,87520.6,
126.6,86979.4,86979.4,
126.2,88188.2,88188.2,
125.8,88464.7,88464.7,
125.4,88544.1,88544.1,
125,88641.2,88641.2,
124.6,89241.2,89241.2,
124.2,89573.5,89573.5,
123.8,89282.4,89282.4,
123.4,90644.1,90644.1,
123,90302.9,90302.9,
122.6,90985.3,90985.3,
122.2,91379.4,91379.4,
121.8,90650,90650,
121.4,91691.2,91691.2,
121,92188.2,92188.2,
120.6,92714.7,92714.7,
120.2,92647.1,92647.1,
119.8,93361.8,93361.8,
119.4,93429.4,93429.4,
119,94447.1,94447.1,
118.6,94350,94350,
118.2,93988.2,93988.2,
117.8,93717.6,93717.6,
117.4,94373.5,94373.5,
117,95467.6,95467.6,
116.6,95117.6,95117.6,
116.2,95876.5,95876.5,
115.8,96802.9,96802.9,
115.4,96782.4,96782.4,
115,96697.1,96697.1,
114.6,98050,98050,
114.2,98241.2,98241.2,
113.8,98338.2,98338.2,
113.4,99105.9,99105.9,
113,99267.6,99267.6,
112.6,99908.8,99908.8,
112.2,100771,100771,
111.8,101229,101229,
111.4,101776,101776,
111,102509,102509,
110.6,101659,101659,
110.2,103179,103179,
109.8,101903,101903,
109.4,101515,101515,
109,101509,101509,
108.6,100985,100985,
108.2,99350,99350,
107.8,100353,100353,
107.4,97941.2,97941.2,
107,98473.5,98473.5,
106.6,97038.2,97038.2,
106.2,97550,97550,
105.8,95732.4,95732.4,
105.4,94950,94950,
105,96091.2,96091.2,
104.6,94752.9,94752.9,
104.2,94282.4,94282.4,
103.8,95041.2,95041.2,
103.4,94111.8,94111.8,
103,92700,92700,
102.6,93597.1,93597.1,
102.2,92432.4,92432.4,
101.8,92494.1,92494.1,
101.4,91485.3,91485.3,
101,90458.8,90458.8,
100.6,90173.5,90173.5,
100.2,88358.8,88358.8,
99.8,88323.5,88323.5,
99.4,88105.9,88105.9,
99,87555.9,87555.9,
98.6,86944.1,86944.1,
98.2,85382.4,85382.4,
97.8,85032.4,85032.4,
97.4,83505.9,83505.9,
97,82767.6,82767.6,
96.6,81326.5,81326.5,
96.2,79808.8,79808.8,
95.8,79450,79450,
95.4,78979.4,78979.4,
95,79658.8,79658.8,
94.6,79455.9,79455.9,
94.2,79038.2,79038.2,
93.8,78732.4,78732.4,
93.4,78947.1,78947.1,
93,78911.8,78911.8,
92.6,78300,78300,
92.2,77729.4,77729.4,
91.8,79638.2,79638.2,
91.4,81588.2,81588.2,
91,85076.5,85076.5,
90.6,89570.6,89570.6,
90.2,94523.5,94523.5,
89.8,102082,102082,
89.4,116229,116229,
89,143856,143856,
88.6,204588,204588,
88.2,327700,327700,
87.8,483044,483044,
87.4,494962,494962,
87,338453,338453,
86.6,190624,190624,
86.2,131956,131956,
85.8,123665,123665,
85.4,146935,146935,
85,205579,205579,
84.6,342874,342874,
84.2,550291,550291,
83.8,607309,607309,
83.4,421841,421841,
83,205782,205782,
82.6,98941.2,98941.2,
82.2,63276.5,63276.5,
81.8,48841.2,48841.2,
81.4,41861.8,41861.8,
81,36126.5,36126.5,
80.6,33352.9,33352.9,
80.2,29844.1,29844.1,
79.8,27597.1,27597.1,
79.4,25611.8,25611.8,
79,23888.2,23888.2,
78.6,23114.7,23114.7,
78.2,22097.1,22097.1,
77.8,21467.6,21467.6,
77.4,21082.4,21082.4,
77,20676.5,20676.5,
76.6,20620.6,20620.6,
76.2,20588.2,20588.2,
75.8,20861.8,20861.8,
75.4,21120.6,21120.6,
75,21585.3,21585.3,
74.6,22097.1,22097.1,
74.2,21541.2,21541.2,
73.8,21379.4,21379.4,
73.4,21570.6,21570.6,
73,20897.1,20897.1,
72.6,20570.6,20570.6,
72.2,19900,19900,
71.8,18814.7,18814.7,
71.4,18123.5,18123.5,
71,18435.3,18435.3,
70.6,17470.6,17470.6,
70.2,16697.1,16697.1,
69.8,16432.4,16432.4,
69.4,16008.8,16008.8,
69,15558.8,15558.8,
68.6,15794.1,15794.1,
68.2,15241.2,15241.2,
67.8,14802.9,14802.9,
67.4,14700,14700,
67,14552.9,14552.9,
66.6,14291.2,14291.2,
66.2,14308.8,14308.8,
65.8,14773.5,14773.5,
65.4,14370.6,14370.6,
65,14902.9,14902.9,
64.6,14926.5,14926.5,
64.2,15123.5,15123.5,
63.8,15285.3,15285.3,
63.4,15250,15250,
63,15576.5,15576.5,
62.6,15894.1,15894.1,
62.2,16411.8,16411.8,
61.8,16829.4,16829.4,
61.4,17270.6,17270.6,
61,18364.7,18364.7,
60.6,19002.9,19002.9,
60.2,20047.1,20047.1,
59.8,21000,21000,
59.4,21702.9,21702.9,
59,22520.6,22520.6,
58.6,24147.1,24147.1,
58.2,25732.4,25732.4,
57.8,26320.6,26320.6,
57.4,27061.8,27061.8,
57,26444.1,26444.1,
56.6,26300,26300,
56.2,25935.3,25935.3,
55.8,23820.6,23820.6,
55.4,22864.7,22864.7,
55,21491.2,21491.2,
54.6,19838.2,19838.2,
54.2,18626.5,18626.5,
53.8,17826.5,17826.5,
53.4,16782.4,16782.4,
53,15750,15750,
52.6,14735.3,14735.3,
52.2,13994.1,13994.1,
51.8,13623.5,13623.5,
51.4,13014.7,13014.7,
51,12573.5,12573.5,
50.6,12341.2,12341.2,
50.2,11988.2,11988.2,
49.8,11308.8,11308.8,
49.4,10970.6,10970.6,
49,10932.4,10932.4,
48.6,10547.1,10547.1,
48.2,10529.4,10529.4,
47.8,10211.8,10211.8,
47.4,9847.06,9847.06,
47,9764.71,9764.71,
46.6,9664.71,9664.71,
46.2,9667.65,9667.65,
45.8,9797.06,9797.06,
45.4,9244.12,9244.12,
45,9588.24,9588.24,
44.6,9391.18,9391.18,
44.2,9605.88,9605.88,
43.8,9361.76,9361.76,
43.4,9358.82,9358.82,
43,9435.29,9435.29,
42.6,9211.76,9211.76,
42.2,9464.71,9464.71,
41.8,9373.53,9373.53,
41.4,9370.59,9370.59,
41,9382.35,9382.35,
40.6,9538.24,9538.24,
40.2,9552.94,9552.94,
39.8,9658.82,9658.82,
39.4,9626.47,9626.47,
39,9452.94,9452.94,
38.6,9400,9400,
38.2,9088.24,9088.24,
37.8,9647.06,9647.06,
37.4,9288.24,9288.24,
37,9582.35,9582.35,
36.6,9682.35,9682.35,
36.2,9388.24,9388.24,
35.8,9664.71,9664.71,
35.4,9720.59,9720.59,
35,9782.35,9782.35,
34.6,9323.53,9323.53,
34.2,9705.88,9705.88,
33.8,9420.59,9420.59,
33.4,9511.76,9511.76,
33,9779.41,9779.41,
32.6,9641.18,9641.18,
32.2,9755.88,9755.88,
31.8,9917.65,9917.65,
31.4,9941.18,9941.18,
31,10294.1,10294.1,
30.6,10111.8,10111.8,
30.2,10255.9,10255.9,
29.8,10091.2,10091.2,
29.4,10441.2,10441.2,
29,10391.2,10391.2,
28.6,10114.7,10114.7,
28.2,9905.88,9905.88,
27.8,9702.94,9702.94,
27.4,9944.12,9944.12,
27,9847.06,9847.06,
26.6,10129.4,10129.4,
26.2,10091.2,10091.2,
25.8,9835.29,9835.29,
25.4,10170.6,10170.6,
25,9829.41,9829.41,
24.6,9967.65,9967.65,
24.2,9423.53,9423.53,
23.8,9950,9950,
23.4,9473.53,9473.53,
23,9491.18,9491.18,
22.6,9514.71,9514.71,
22.2,9729.41,9729.41,
21.8,9408.82,9408.82,
21.4,9767.65,9767.65,
21,9594.12,9594.12,
20.6,9061.76,9061.76,
20.2,9120.59,9120.59,
19.8,9467.65,9467.65,
19.4,9120.59,9120.59,
19,9038.24,9038.24,
18.6,8714.71,8714.71,
18.2,8564.71,8564.71,
17.8,8961.76,8961.76,
17.4,8817.65,8817.65,
17,8564.71,8564.71,
16.6,8423.53,8423.53,
16.2,8467.65,8467.65,
15.8,8367.65,8367.65,
15.4,8391.18,8391.18,
15,8038.24,8038.24,
14.6,7800,7800,
14.2,7891.18,7891.18,
13.8,8011.76,8011.76,
13.4,7932.35,7932.35,
13,8241.18,8241.18,
12.6,8117.65,8117.65,
12.2,8132.35,8132.35,
11.8,7776.47,7776.47,
11.4,7935.29,7935.29,
11,8217.65,8217.65,
10.6,8861.76,8861.76,
10.2,8902.94,8902.94,
9.8,9420.59,9420.59,
9.4,9994.12,9994.12,
9,11382.4,11382.4,
8.6,13170.6,13170.6,
8.2,16488.2,16488.2,
7.8,21141.2,21141.2,
7.4,27985.3,27985.3,
7,34055.9,34055.9,
6.6,39282.4,39282.4,
6.2,41405.9,41405.9,
5.8,39479.4,39479.4,
5.4,35735.3,35735.3,
5,35629.4,35629.4,
4.6,38067.6,38067.6,
4.2,43438.2,43438.2,
3.8,45600,45600,
3.4,45894.1,45894.1,
3,43547.1,43547.1,
2.6,38317.6,38317.6,
2.2,29997.1,29997.1,
1.8,18667.6,18667.6,
1.4,11697.1,11697.1,
1,8050,8050,
0.6,6588.24,6588.24,
0.2,4670.59,4670.59,
-0.2,3064.71,3064.71,
-0.6,1802.94,1802.94,
