,,
,,
Characteristic Energy eV,1486.6,Acquisition Time s
BE_C 1s 2,CPS_C 1s 2,Background_C 1s 2
294,11749.1,11749.1
293.875,11610.9,11610.9
293.75,11730.7,11730.7
293.625,11639.7,11639.7
293.5,11707.5,11707.5
293.375,11752.3,11752.3
293.25,11778.9,11778.9
293.125,11630.1,11630.1
293,11777.1,11777.1
292.875,11803.5,11803.5
292.75,11734.9,11734.9
292.625,11803.5,11803.5
292.5,11702.9,11702.9
292.375,11760.5,11760.5
292.25,11705.9,11705.9
292.125,11861.1,11861.1
292,11816,11816
291.875,11805.1,11805.1
291.75,11654.4,11654.4
291.625,11750.1,11750.1
291.5,11658.1,11658.1
291.375,11817.3,11817.3
291.25,11783.5,11783.5
291.125,11800,11800
291,11818.9,11800.2
290.875,11781.6,11800.2
290.75,11814.7,11800.2
290.625,11982.4,11800.1
290.5,11806.4,11800.1
290.375,11920.3,11800.1
290.25,11886.9,11800.1
290.125,11930.9,11800.1
290,11846.9,11800.1
289.875,11951.7,11800
289.75,11913.9,11800
289.625,11955.2,11800
289.5,11948.5,11800
289.375,12042.7,11799.9
289.25,12015.5,11799.9
289.125,12042.9,11799.8
289,12100.8,11799.8
288.875,12141.3,11799.7
288.75,12068.3,11799.7
288.625,12175.7,11799.6
288.5,12258.7,11799.5
288.375,12094.1,11799.4
288.25,12273.3,11799.4
288.125,12194.7,11799.3
288,12233.9,11799.2
287.875,12259.7,11799.1
287.75,12298.7,11799
287.625,12250.9,11798.9
287.5,12287.2,11798.8
287.375,12418.1,11798.7
287.25,12490.1,11798.6
287.125,12589.1,11798.4
287,12669.3,11798.3
286.875,12617.6,11798.1
286.75,12757.3,11798
286.625,12755.7,11797.8
286.5,12824.5,11797.6
286.375,12804,11797.4
286.25,12943.7,11797.2
286.125,13033.3,11796.9
286,13054.7,11796.7
285.875,13252.8,11796.4
285.75,13480.3,11796.1
285.625,13649.1,11795.8
285.5,13995.2,11795.4
285.375,14515.7,11794.9
285.25,14881.1,11794.3
285.125,15695.2,11793.6
285,16476.8,11792.7
284.875,17394.4,11791.6
284.75,18404,11790.4
284.625,19684.5,11788.9
284.5,20755.2,11787.2
284.375,21594.1,11785.4
284.25,22327.7,11783.4
284.125,22542.9,11781.4
284,22300.3,11779.4
283.875,21488,11777.6
283.75,20315.7,11776
283.625,19039.7,11774.7
283.5,17677.1,11773.6
283.375,16095.7,11772.8
283.25,14943.5,11772.2
283.125,13812.8,11771.8
283,13073.9,11771.5
282.875,12521.1,11771.4
282.75,12336.3,11771.3
282.625,11991.2,11771.3
282.5,11877.6,11771.2
282.375,11870.9,11771.2
282.25,11728.5,11771.2
282.125,11811.2,11771.2
282,11768.8,11771.2
281.875,11733.6,11733.6
281.75,11740,11740
281.625,11695.7,11695.7
281.5,11759.2,11759.2
281.375,11613.3,11613.3
281.25,11810.1,11810.1
281.125,11782.4,11782.4
281,11650.7,11650.7
280.875,11777.6,11777.6
280.75,11636.8,11636.8
280.625,11579.7,11579.7
280.5,11724.5,11724.5
280.375,11676.3,11676.3
280.25,11717.6,11717.6
280.125,11672,11672
280,11684,11684
