,,,,,
,,,,,
Characteristic Energy eV,1486.6,Acquisition Time s,2.25,,
BE_Au 4f 1,CPS_Au 4f 1,Au 4f_1_Au 4f 1,Au 4f_2_Au 4f 1,Background_Au 4f 1,Envelope_Au 4f 1
96,17463.6,17463.6,17463.6,17463.6,17463.6
95.875,17539.1,17539.1,17539.1,17539.1,17539.1
95.75,17297.8,17297.8,17297.8,17297.8,17297.8
95.625,17438.7,17438.7,17438.7,17438.7,17438.7
95.5,17470.2,17470.2,17470.2,17470.2,17470.2
95.375,17367.6,17367.6,17367.6,17367.6,17367.6
95.25,17443.6,17443.6,17443.6,17443.6,17443.6
95.125,17406.2,17406.2,17406.2,17406.2,17406.2
95,17391.6,17391.6,17391.6,17391.6,17391.6
94.875,17609.3,17609.3,17609.3,17609.3,17609.3
94.75,17674.7,17674.7,17674.7,17674.7,17674.7
94.625,17475.6,17475.6,17475.6,17475.6,17475.6
94.5,17556.4,17556.4,17556.4,17556.4,17556.4
94.375,17383.6,17383.6,17383.6,17383.6,17383.6
94.25,17432.9,17432.9,17432.9,17432.9,17432.9
94.125,17544.9,17544.9,17544.9,17544.9,17544.9
94,17656,17656,17656,17656,17656
93.875,17628.9,17628.9,17628.9,17628.9,17628.9
93.75,17520.4,17520.4,17520.4,17520.4,17520.4
93.625,17534.2,17534.2,17534.2,17534.2,17534.2
93.5,17421.8,17421.8,17421.8,17421.8,17421.8
93.375,17361.8,17361.8,17361.8,17361.8,17361.8
93.25,17108,17108,17108,17108,17108
93.125,17150.7,17150.7,17150.7,17150.7,17150.7
93,16998.7,16998.7,16998.7,16998.7,16998.7
92.875,16882.2,16882.2,16882.2,16882.2,16882.2
92.75,16898.2,16898.2,16898.2,16898.2,16898.2
92.625,16805.3,16805.3,16805.3,16805.3,16805.3
92.5,16826.2,16826.2,16826.2,16826.2,16826.2
92.375,16675.1,16675.1,16675.2,16675.1,16675.2
92.25,16649.8,16649.8,16649.9,16649.8,16649.9
92.125,16581.3,16652.9,16653.1,16652.9,16653.1
92,16728.4,16652.7,16652.9,16652.7,16652.9
91.875,16833.3,16652,16652.5,16652,16652.5
91.75,16948,16651,16651.9,16651,16651.9
91.625,16991.1,16649.8,16651.3,16649.8,16651.3
91.5,17295.1,16647.6,16650,16647.6,16650
91.375,17467.6,16644.7,16648.9,16644.7,16648.9
91.25,18008.4,16639.9,16646.8,16639.9,16646.8
91.125,17984.4,16635.2,16646.5,16635.2,16646.5
91,18260.9,16629.5,16647.7,16629.5,16647.7
90.875,18407.1,16623.3,16652.3,16623.3,16652.3
90.75,18542.7,16616.6,16662.2,16616.6,16662.2
90.625,18961.3,16608.4,16679.3,16608.4,16679.3
90.5,19052.4,16599.8,16708.8,16599.8,16708.8
90.375,19223.1,16590.7,16756.3,16590.7,16756.3
90.25,19288.9,16581.2,16829.9,16581.2,16829.9
90.125,19220.9,16572,16941.9,16572,16941.9
90,19330.2,16562.3,17106.5,16562.3,17106.5
89.875,19381.8,16552.5,17345.3,16552.5,17345.3
89.75,19568,16541.9,17686.4,16541.9,17686.4
89.625,19957.8,16530,18166.9,16530,18166.9
89.5,20498.7,16516.1,18840.4,16516.1,18840.4
89.375,21275.1,16499.4,19774.1,16499.4,19774.1
89.25,22399.6,16478.8,21065.3,16478.8,21065.3
89.125,24308.4,16451.4,22841.6,16451.4,22841.6
89,26650.2,16415.7,25281.7,16415.7,25281.8
88.875,29630.2,16369.5,28645,16369.5,28645.1
88.75,34165.8,16307.3,33275.2,16307.2,33275.2
88.625,40619.1,16222.3,39696.6,16222.2,39696.7
88.5,49876.4,16104.6,48613.9,16104.5,48614.1
88.375,63344,15939.5,61012.7,15939.2,61013
88.25,81532.4,15710.3,78111.3,15709.7,78111.8
88.125,104308,15400.7,100832,15399.8,100833
88,131470,14995.3,128439,14993.7,128441
87.875,155590,14504.6,155325,14501.9,155327
87.75,170114,13962.1,169956,13957.5,169961
87.625,166132,13432.8,163072,13425.1,163080
87.5,145350,12976.2,138939,12963.6,138952
87.375,115235,12626.3,109766,12605.8,109786
87.25,86263.1,12380.8,84006.6,12348.1,84039.3
87.125,64028,12219.1,64099,12167.3,64150.7
87,47940.9,12122.9,49500.9,12042.2,49581.6
86.875,37908.4,12076.3,38974.7,11951.7,39099.3
86.75,31228.4,12074.4,31418,11884.3,31608.2
86.625,27055.1,12117.9,25955,11831.2,26241.8
86.5,23900.9,12217.1,22001.8,11789,22429.9
86.375,21596.4,12386.8,19123.1,11754.7,19755.3
86.25,20278.2,12649.1,17022.9,11724.8,17947.2
86.125,19160.9,13037.3,15491.8,11698.8,16830.3
86,18539.6,13595.2,14373.1,11674.9,16293.4
85.875,18324.4,14386,13559.5,11651.6,16293.8
85.75,18889.8,15488.2,12964.3,11626.3,16826.2
85.625,19742.2,17018.6,12528.5,11597.9,17949.2
85.5,21391.6,19129,12205.2,11563.7,19770.5
85.375,23548,22031.7,11959.4,11521.7,22469.4
85.25,26899.6,26030.5,11763.9,11467.9,26326.4
85.125,31684.4,31530.6,11595,11397.2,31728.4
85,38790.7,39148.3,11432.2,11301.4,39279.2
84.875,49134.2,49712.2,11254.6,11169,49797.7
84.75,64051.1,64408.9,11039.3,10984,64464.2
84.625,85220.4,84780.4,10759.6,10724.3,84815.7
84.5,113163,112305,10388.2,10366,112327
84.375,146473,147233,9903.69,9889.8,147247
84.25,181168,184860,9299.15,9290.61,184869
84.125,206558,212259,8605.69,8600.49,212265
84,210392,213837,7897.67,7894.55,213840
83.875,190656,188255,7257.03,7255.19,188256
83.75,153331,149992,6745.24,6744.16,149994
83.625,112861,113311,6373.55,6372.93,113312
83.5,79274.7,83950.5,6118.24,6117.89,83950.9
83.375,55195.1,62130.3,5946.4,5946.2,62130.5
83.25,39184,46345.8,5830.03,5829.92,46345.9
83.125,28844.9,35020.9,5749.47,5749.41,35020.9
83,22281.8,26852.2,5691.6,5691.57,26852.3
82.875,17956.9,20955.2,5648.68,5648.66,20955.2
82.75,14532.9,16670.5,5617.59,5617.58,16670.5
82.625,12359.1,13552.4,5594,5594,13552.4
82.5,10692.9,11283.9,5576.16,5576.16,11283.9
82.375,9538.67,9631.53,5562.3,5562.3,9631.53
82.25,8549.78,8436.5,5551.85,5551.85,8436.5
82.125,7884,7572.49,5543.69,5543.69,7572.49
82,7107.11,6953.74,5538.22,5538.22,6953.74
81.875,6855.56,6512.64,5533.61,5533.61,6512.64
81.75,6434.22,6200.84,5530.46,5530.46,6200.84
81.625,6172.89,5983.11,5528.21,5528.21,5983.11
81.5,5952.44,5831.96,5526.73,5526.73,5831.96
81.375,5694.67,5728.84,5526.14,5526.14,5728.84
81.25,5507.11,5659.17,5526.07,5526.07,5659.17
81.125,5376.44,5462.8,5376.44,5376.44,5462.8
81,5256.44,5311.86,5256.44,5256.44,5311.86
80.875,5164,5199.1,5164,5164,5199.1
80.75,5045.33,5067.32,5045.33,5045.33,5067.32
80.625,4972,4985.59,4972,4972,4985.59
80.5,4881.78,4890.07,4881.78,4881.78,4890.07
80.375,4781.78,4786.78,4781.78,4781.78,4786.78
80.25,4703.11,4706.09,4703.11,4703.11,4706.09
80.125,4704,4705.75,4704,4704,4705.75
80,4579.56,4580.57,4579.56,4579.56,4580.57
79.875,4535.11,4535.69,4535.11,4535.11,4535.69
79.75,4526.22,4526.55,4526.22,4526.22,4526.55
79.625,4454.67,4454.85,4454.67,4454.67,4454.85
79.5,4466.67,4466.77,4466.67,4466.67,4466.77
79.375,4335.56,4335.61,4335.56,4335.56,4335.61
79.25,4441.78,4441.81,4441.78,4441.78,4441.81
79.125,4364.89,4364.9,4364.89,4364.89,4364.9
79,4326.22,4326.23,4326.22,4326.22,4326.23
78.875,4287.11,4287.12,4287.11,4287.11,4287.12
78.75,4276.89,4276.89,4276.89,4276.89,4276.89
78.625,4251.11,4251.11,4251.11,4251.11,4251.11
78.5,4269.78,4269.78,4269.78,4269.78,4269.78
78.375,4378.67,4378.67,4378.67,4378.67,4378.67
78.25,4249.33,4249.33,4249.33,4249.33,4249.33
78.125,4257.33,4257.33,4257.33,4257.33,4257.33
78,4334.67,4334.67,4334.67,4334.67,4334.67
